LDAT1,LDAT2,LSAT1,LSAT2,RDAT1,RDAT2,RSAT1,RSAT2
0,0,0,0,0,0,0,0
0,8,0,1,2,3,4,5
6,7,0,8,2,2,2,2
2,2,2,2,0,0,0,0
0,0,1,175,-34,16,-1,-1
32,-60,-3,178,-50,15,-1,-1
32,-53,0,181,-42,12,-1,-1
28,-58,1,181,-50,16,-1,-1
23,-51,5,191,-25,20,-1,-1
32,-59,4,182,-36,18,-1,-1
24,-65,-5,170,-43,16,-1,-1
23,-57,-4,184,-43,13,-1,-1
22,-64,-35,175,-48,22,-1,-1
22,-58,-94,172,-35,20,-1,-1
32,-54,-87,185,-31,17,-1,-1
22,-65,-49,169,-28,16,-1,-1
36,-67,9,174,-41,16,-1,-1
27,-73,6,170,-44,16,-1,-1
23,-89,-109,169,-46,7,-1,-1
22,-68,-127,182,-40,20,-1,-1
13,-58,-86,175,-30,16,-1,-1
25,-56,-40,175,-28,19,-1,-1
21,-57,4,177,-29,26,-1,-1
21,-73,23,188,-41,19,-1,-1
17,-82,56,170,-39,16,-1,-1
21,-77,80,177,-39,22,-1,-1
19,-79,102,170,-41,21,-1,-1
28,-81,109,190,-22,19,-1,-1
27,-85,98,179,-39,20,-1,-1
29,-89,73,168,-32,22,-1,-1
22,-91,33,177,-36,18,-1,-1
25,-95,-13,157,-36,19,-1,-1
28,-82,-44,178,-38,21,-1,-1
32,-85,-69,173,-35,20,-1,-1
28,-83,-56,186,-35,17,-1,-1
33,-74,33,172,-36,20,-1,-1
35,-81,231,184,-32,22,-1,-1
26,-71,303,164,-37,27,-1,-1
30,-73,298,181,-44,28,-1,-1
30,-78,222,177,-35,22,-1,-1
29,-72,156,183,-38,26,-1,-1
28,-69,121,193,-38,26,-1,-1
26,-67,122,197,-42,26,-1,-1
25,-65,149,195,-29,30,-1,-1
27,-58,128,216,-40,25,-1,-1
24,-60,89,216,-31,22,-1,-1
15,-76,27,238,-41,20,-1,-1
25,-74,-36,261,-34,19,-1,-1
24,-68,-56,264,-31,20,0,-1
18,-70,-90,246,-42,23,-1,-1
23,-78,-130,215,-37,15,-1,0
15,-72,-165,205,-41,17,-1,-1
20,-71,-184,185,-36,14,-1,-1
23,-73,-189,235,-35,12,-1,-1
23,-69,-182,228,-28,16,-1,0
21,-65,-181,205,-25,15,-1,-1
18,-79,-157,171,-43,15,-1,-1
26,-66,-131,147,-38,9,-1,-1
39,-82,-129,135,-40,15,-1,-1
33,-78,-109,140,-31,14,-1,-1
14,-74,-98,122,-32,13,-1,-1
-5,-72,-106,128,-38,11,-1,-1
3,-80,-98,189,-36,13,-1,-1
5,-82,-105,230,-44,16,-1,-1
12,-85,-107,225,-44,9,-1,-1
41,-64,-84,180,-41,18,-1,-1
65,-75,-12,98,-28,17,-1,0
59,-81,95,25,-33,16,-1,-1
53,-85,173,-3,-43,19,-1,-1
37,-80,211,-14,-40,25,-1,-1
36,-77,192,4,-38,18,-1,-1
22,-76,138,19,-41,22,-1,-1
24,-79,133,69,-35,17,-1,-1
15,-83,123,109,-42,24,-1,-1
3,-82,84,138,-40,18,-1,-1
7,-84,67,175,-42,18,-1,-1
16,-88,55,194,-39,18,-1,-1
20,-77,88,240,-36,20,-1,-1
34,-73,92,255,-35,22,-1,-1
42,-86,71,271,-37,21,-1,-1
46,-75,25,300,-29,15,-1,-1
44,-83,-35,289,-30,21,-1,-1
21,-84,-102,292,-37,22,-1,-1
-24,-82,-164,253,-35,17,-1,-1
-89,-89,-214,250,-45,8,-1,-1
-151,-85,-228,229,-37,9,-1,-1
-135,-74,-154,229,-39,16,-1,-1
-80,-76,-110,242,-34,10,-1,-1
-34,-75,-127,249,-38,9,-1,-1
-6,-77,-133,264,-45,5,-1,-1
28,-65,-139,248,-42,8,-1,-1
46,-63,-133,167,-51,5,-1,-1
61,-75,-121,120,-42,14,-1,-1
70,-79,-95,117,-37,19,-1,-1
81,-79,-78,129,-35,25,-1,-1
83,-71,-43,128,-41,24,-1,-1
77,-71,-21,314,-29,25,-1,-1
73,-73,-13,368,-36,28,-1,-1
69,-75,4,290,-36,26,-1,-1
58,-59,-2,193,-32,33,-1,-1
56,-64,-5,113,-39,26,-1,-1
44,-61,-2,56,-35,28,-1,-1
50,-63,10,33,-30,27,-1,-1
55,-62,22,34,-34,23,-1,-1
56,-69,32,60,-35,22,-1,-1
48,-73,47,80,-40,25,-1,-1
30,-88,70,57,-37,26,-1,-1
30,-76,84,26,-41,30,-1,-1
56,-65,102,-28,-33,34,-1,-1
77,-68,111,-23,-32,32,-1,-1
73,-73,104,33,-45,27,-1,-1
60,-71,105,102,-30,34,-1,-1
44,-65,114,165,-38,30,-1,-1
36,-63,109,219,-26,37,-1,-1
18,-74,107,230,-33,29,0,-1
-10,-75,92,250,-43,31,-1,-1
-15,-82,80,242,-43,32,-1,-1
-15,-73,69,227,-49,25,-1,-1
-7,-64,67,236,-39,25,0,-1
-8,-58,72,219,-43,25,-1,-1
-9,-59,64,213,-38,14,-1,-1
-17,-58,53,193,-38,13,-1,-1
-22,-59,39,205,-41,9,-1,-1
-26,-55,36,207,-41,10,-1,-1
-7,-50,21,196,-37,6,-1,-1
-1,-59,22,194,-40,2,-1,-1
24,-52,29,195,-24,12,-1,-1
28,-46,34,177,-37,8,-1,-1
22,-41,24,184,-29,2,-1,-1
16,-72,5,154,-50,-1,-1,-1
7,-74,-6,160,-41,-3,0,-1
7,-69,3,146,-42,4,-1,-1
13,-69,6,172,-30,5,-1,-1
12,-51,0,173,-35,1,-1,-1
12,-61,-12,182,-40,4,-1,-1
15,-68,-16,182,-42,3,-1,-1
5,-71,-32,191,-44,10,-1,-1
15,-68,-25,185,-35,16,-1,-1
18,-63,-30,198,-26,12,-1,-1
8,-53,-30,194,-37,17,-1,-1
18,-66,-47,212,-28,18,-1,-1
16,-68,-48,206,-35,18,-1,-1
16,-66,-39,212,-39,20,-1,-1
13,-70,-32,209,-46,14,-1,-1
12,-81,-15,203,-35,20,-1,-1
19,-75,-6,210,-27,24,-1,-1
24,-66,5,221,-23,27,-1,-1
24,-65,6,207,-18,27,-1,-1
33,-72,4,218,-24,28,-1,-1
39,-81,-3,207,-37,26,-1,-1
35,-92,-11,201,-30,27,-1,-1
38,-91,-7,205,-31,19,-1,-1
48,-69,-1,206,-21,28,-1,-1
43,-59,21,203,-19,31,-1,-1
48,-61,26,216,-24,25,-1,-1
42,-72,21,206,-32,20,-1,-1
34,-84,9,201,-45,20,-1,-1
26,-85,9,204,-42,15,-1,-1
36,-80,11,217,-33,24,-1,-1
39,-75,18,216,-29,30,-1,-1
41,-65,5,215,-26,22,-1,-1
39,-66,-10,208,-45,16,-1,-1
28,-84,-26,204,-55,16,-1,-1
26,-86,-28,194,-54,17,-1,-1
27,-78,-29,185,-52,12,-1,-1
25,-64,-21,188,-38,25,-1,-1
23,-58,-16,194,-41,23,-1,-1
24,-52,-19,141,-34,19,-1,-1
23,-71,-26,123,-45,21,-1,-1
22,-74,-36,168,-47,19,-1,-1
10,-84,-33,249,-44,19,-1,-1
0,-64,-34,271,-36,21,-1,-1
-7,-64,-29,218,-28,27,-1,-1
6,-62,-29,212,-36,23,-1,-1
14,-64,-26,186,-46,24,-1,-1
19,-70,-31,123,-38,23,-1,-1
22,-74,-26,85,-41,18,-1,-1
14,-74,-19,64,-36,18,-1,-1
19,-71,-19,36,-48,18,-1,-1
15,-76,-11,52,-32,12,-1,-1
13,-69,-7,67,-36,22,-1,-1
26,-60,-2,100,-29,20,-1,-1
26,-64,-3,117,-35,20,-1,-1
38,-60,0,140,-30,20,-1,-1
43,-70,-3,140,-45,12,-1,-1
46,-63,-2,179,-37,17,-1,-1
53,-63,4,174,-30,22,-1,-1
80,-60,-3,184,-36,20,-1,-1
76,-70,-4,198,-39,23,-1,-1
67,-69,-5,182,-31,14,-1,-1
58,-73,0,187,-37,20,-1,-1
61,-65,11,192,-37,24,-1,-1
45,-60,18,186,-46,20,-1,-1
40,-57,20,188,-30,21,-1,-1
29,-64,20,183,-44,21,-1,-1
23,-62,21,185,-31,21,-1,-1
12,-66,16,180,-42,25,-1,-1
0,-56,20,181,-36,18,-1,-1
-2,-62,13,178,-31,17,-1,-1
-11,-59,8,173,-44,20,-1,-1
-13,-64,11,181,-36,20,-1,-1
-24,-60,9,171,-35,21,-1,-1
-22,-61,8,169,-42,20,0,-1
-14,-70,1,179,-34,21,-1,-1
-10,-60,11,186,-44,23,-1,-1
-9,-68,9,175,-30,23,-1,-1
3,-66,6,172,-38,23,-1,-1
4,-73,12,179,-39,24,-1,-1
17,-62,10,175,-33,29,-1,-1
17,-69,12,179,-48,31,-1,-1
15,-68,6,174,-44,18,-1,-1
24,-57,7,172,-37,22,-1,-1
10,-57,15,190,-40,26,-1,-1
-2,-58,13,171,-49,24,-1,-1
-2,-57,12,181,-41,25,-1,-1
8,-46,10,187,-39,26,-1,-1
18,-54,8,179,-46,25,-1,-1
29,-65,12,189,-34,25,-1,-1
38,-61,10,182,-43,24,-1,-1
36,-55,11,192,-31,16,-1,-1
44,-47,15,192,-42,19,-1,-1
43,-55,14,190,-37,16,-1,-1
34,-49,21,194,-34,18,-1,-1
23,-52,21,200,-42,15,-1,-1
5,-52,23,203,-35,16,-1,0
-24,-52,24,197,-45,17,-1,-1
-30,-56,17,200,-38,19,-1,0
-13,-50,-1,203,-41,18,-1,-1
10,-62,-10,199,-35,20,-1,-1
36,-58,-59,202,-41,15,0,-1
41,-65,-96,206,-42,20,-1,-1
68,-57,-86,193,-35,19,-1,-1
81,-51,-35,195,-28,20,-1,-1
87,-62,9,186,-32,19,-1,-1
86,-54,-47,186,-34,14,-1,-1
82,-77,-140,183,-49,10,-1,-1
73,-79,-131,180,-41,13,-1,-1
63,-69,-81,170,-40,17,-1,-1
66,-73,-28,188,-25,20,-1,-1
56,-73,0,171,-26,23,-1,-1
47,-74,6,176,-31,23,-1,-1
39,-77,-2,161,-44,9,-1,-1
33,-83,-13,170,-43,21,-1,-1
24,-83,-13,175,-33,15,-1,-1
22,-83,-7,171,-28,22,-1,-1
24,-75,21,178,-30,27,-1,-1
14,-66,170,171,-28,25,-1,-1
11,-78,301,185,-38,23,-1,-1
8,-88,330,174,-43,19,-1,-1
5,-82,278,183,-46,14,-1,-1
8,-77,214,191,-40,15,-1,-1
11,-72,170,209,-39,17,0,-1
13,-74,167,209,-37,20,-1,-1
21,-67,188,228,-47,12,-1,-1
25,-67,190,242,-44,8,-1,-1
25,-67,173,258,-40,12,-1,-1
20,-68,129,247,-47,5,-1,-1
2,-60,53,215,-39,7,-1,-1
-3,-61,-36,195,-34,14,-1,-1
6,-64,-128,182,-42,22,-1,-1
14,-61,-201,151,-42,11,-1,-1
14,-58,-253,135,-48,14,-1,-1
10,-59,-266,161,-45,23,-1,-1
14,-68,-238,231,-52,13,-1,-1
8,-58,-138,208,-42,20,-1,-1
5,-63,-63,207,-46,15,-1,-1
2,-62,-29,202,-50,14,-1,-1
5,-66,-24,155,-52,11,-1,-1
1,-62,-31,144,-48,12,-1,-1
11,-62,-43,110,-44,21,-1,-1
9,-67,-52,118,-44,27,-1,-1
5,-67,-68,182,-45,20,-1,-1
12,-58,-67,241,-42,22,-1,-1
17,-62,-54,252,-45,24,-1,-1
18,-64,0,222,-37,31,-1,-1
19,-49,36,132,-43,26,-1,-1
23,-49,52,58,-41,25,-1,-1
24,-45,42,26,-35,32,-1,-1
26,-51,15,38,-38,21,-1,-1
26,-52,-22,36,-41,21,-1,-1
22,-54,-43,62,-38,26,-1,-1
25,-51,-69,104,-34,22,-1,-1
25,-49,-69,121,-44,28,-1,-1
23,-58,-80,148,-37,24,-1,-1
20,-59,-87,170,-45,25,-1,-1
19,-60,-81,183,-39,23,-1,-1
17,-68,-74,192,-33,28,-1,-1
21,-65,-55,202,-36,17,-1,-1
23,-71,-35,207,-34,17,-1,-1
14,-65,-18,213,-30,12,-1,-1
19,-68,20,205,-30,14,-1,-1
23,-72,49,195,-21,13,-1,-1
19,-70,57,150,-24,10,-1,-1
16,-67,52,159,-36,12,-1,-1
20,-77,29,114,-37,9,-1,-1
18,-75,14,116,-35,12,-1,-1
22,-69,-3,126,-28,17,-1,-1
19,-71,-10,157,-33,13,-1,-1
23,-78,-19,191,-29,17,-1,-1
21,-81,-10,219,-37,16,-1,-1
20,-66,-6,237,-25,21,-1,-1
29,-78,-8,246,-31,18,-1,-1
27,-80,12,259,-35,20,0,-1
25,-76,38,247,-33,19,-1,-1
23,-77,70,256,-27,23,-1,-1
19,-70,85,269,-30,25,-1,-1
28,-64,77,261,-28,26,-1,-1
23,-68,63,255,-27,21,-1,-1
18,-81,48,239,-42,23,-1,0
18,-69,26,226,-46,23,-1,0
20,-66,17,224,-44,18,-1,-1
19,-74,28,210,-43,26,-1,-1
25,-70,27,194,-42,25,-1,-1
18,-64,16,206,-37,25,-1,-1
25,-69,9,235,-49,21,-1,-1
28,-68,5,257,-47,17,-1,-1
29,-76,8,235,-41,16,-1,-1
28,-69,-6,229,-42,20,-1,-1
36,-54,10,208,-31,20,-1,-1
30,-63,9,189,-36,15,-1,-1
31,-59,-12,188,-31,14,0,-1
29,-64,-32,199,-40,14,-1,-1
19,-71,-47,206,-49,9,-1,-1
28,-68,-47,193,-37,18,-1,-1
26,-59,-38,162,-38,13,-1,-1
21,-60,-36,139,-51,14,-1,-1
23,-50,-36,75,-45,9,-1,-1
15,-67,-42,68,-49,10,-1,-1
24,-68,-34,76,-52,11,-1,-1
13,-66,-32,94,-46,8,-1,-1
23,-58,-26,106,-43,9,-1,-1
17,-54,-16,102,-33,3,-1,-1
23,-47,-18,39,-43,16,-1,-1
25,-64,-28,8,-37,12,-1,-1
16,-63,-42,38,-52,16,-1,-1
20,-70,-52,68,-48,13,-1,-1
15,-66,-39,92,-40,16,-1,-1
19,-66,-7,133,-36,26,-1,-1
21,-54,-2,132,-40,23,-1,-1
18,-65,-1,169,-34,21,-1,-1
14,-72,-10,178,-47,20,-1,-1
24,-86,-24,185,-54,23,-1,-1
20,-83,-30,198,-43,25,-1,-1
18,-72,-24,200,-43,27,-1,-1
19,-73,-29,210,-38,26,-1,-1
24,-76,-37,212,-37,24,-1,-1
18,-73,-31,210,-39,27,-1,-1
28,-75,-31,221,-47,13,-1,-1
18,-77,-28,215,-34,9,-1,-1
18,-88,-8,220,-51,8,-1,-1
23,-70,43,222,-32,21,-1,-1
23,-70,59,229,-41,15,-1,-1
22,-77,58,227,-44,12,-1,-1
19,-84,53,219,-49,14,-1,-1
16,-89,55,211,-51,14,-1,-1
19,-83,64,193,-42,21,-1,-1
21,-75,69,186,-44,19,-1,-1
13,-74,49,165,-42,18,-1,-1
13,-78,62,158,-42,19,-1,-1
2,-77,91,151,-48,22,-1,-1
10,-83,84,141,-38,25,-1,-1
11,-73,68,138,-35,27,-1,-1
12,-71,28,149,-34,15,-1,-1
11,-87,-5,162,-41,22,-1,-1
5,-90,-36,178,-41,20,-1,-1
15,-82,-59,190,-36,19,-1,-1
20,-84,-89,194,-37,20,-1,-1
22,-79,-103,202,-22,23,-1,-1
45,-78,-104,210,-38,22,-1,-1
67,-81,-101,237,-37,20,-1,-1
64,-75,-90,261,-30,19,-1,-1
48,-75,-82,287,-38,12,-1,-1
48,-74,-71,298,-39,15,-1,-1
33,-73,-55,297,-39,18,-1,-1
25,-70,-45,282,-33,17,-1,-1
26,-65,-34,238,-30,14,-1,-1
13,-69,-32,190,-32,7,-1,-1
20,-73,-28,149,-37,15,-1,-1
4,-76,-22,101,-43,15,-1,-1
14,-67,-30,104,-42,3,-1,-1
3,-70,-19,104,-37,14,-1,-1
4,-63,-17,173,-34,15,-1,-1
6,-51,-10,219,-36,16,-1,-1
3,-70,-14,186,-37,17,-1,-1
11,-62,-13,98,-41,18,-1,-1
14,-65,-15,79,-38,16,-1,-1
11,-60,-4,138,-37,18,-1,-1
7,-60,4,66,-39,16,-1,-1
11,-46,23,55,-39,17,-1,-1
13,-47,23,62,-33,13,-1,-1
9,-56,41,61,-44,15,-1,-1
7,-60,55,91,-38,15,-1,-1
17,-44,69,115,-42,13,-1,-1
7,-48,58,133,-41,14,-1,-1
14,-45,44,166,-47,14,-1,-1
15,-50,24,163,-36,16,-1,0
15,-44,13,184,-40,21,-1,-1
18,-49,36,193,-31,20,-1,-1
26,-47,98,191,-40,18,-1,-1
18,-56,85,186,-39,17,-1,-1
24,-53,42,174,-40,12,-1,-1
21,-63,5,160,-48,19,-1,-1
19,-75,-22,158,-41,18,-1,-1
16,-67,-39,161,-39,16,-1,-1
28,-77,-55,150,-33,19,-1,-1
39,-87,-54,123,-29,25,-1,-1
42,-91,-72,121,-38,22,-1,-1
17,-93,-74,202,-37,19,-1,-1
-1,-89,-56,270,-44,22,-1,-1
-4,-94,-46,274,-38,25,-1,-1
-4,-85,-22,261,-37,22,-1,-1
10,-65,-6,228,-35,26,-1,-1
32,-72,3,195,-38,26,-1,-1
45,-85,11,154,-39,29,-1,-1
50,-85,24,132,-35,26,-1,-1
48,-81,27,102,-38,26,-1,-1
56,-82,30,119,-42,29,-1,-1
54,-78,40,142,-33,23,-1,-1
65,-74,32,161,-37,18,-1,-1
60,-83,37,170,-42,17,-1,-1
67,-87,33,190,-41,21,-1,-1
70,-80,30,205,-29,23,-1,-1
56,-75,35,226,-40,15,-1,-1
32,-76,29,237,-31,25,-1,-1
-10,-71,26,247,-26,22,-1,-1
-73,-76,17,224,-39,19,-1,-1
-135,-70,16,226,-35,11,-1,0
-133,-72,6,218,-51,14,-1,-1
-96,-72,7,224,-38,17,-1,-1
-52,-67,13,218,-47,14,-1,-1
-13,-67,15,225,-46,17,-1,-1
17,-67,14,223,-41,17,-1,-1
43,-60,17,227,-53,17,-1,-1
59,-63,16,214,-48,22,-1,-1
66,-68,6,223,-54,14,-1,-1
77,-60,8,217,-51,16,-1,-1
66,-64,3,214,-57,24,-1,-1
78,-70,-14,216,-54,12,-1,-1
70,-71,-17,198,-51,18,-1,-1
67,-78,-62,207,-49,11,-1,-1
57,-73,-93,194,-46,20,-1,-1
64,-74,-67,189,-48,16,-1,-1
53,-66,-10,176,-38,18,-1,-1
51,-73,10,170,-39,13,-1,-1
41,-76,-67,158,-45,19,-1,-1
37,-68,-138,166,-36,7,-1,-1
32,-75,-123,160,-36,7,-1,-1
29,-82,-81,152,-32,10,-1,-1
25,-75,-36,150,-31,7,-1,-1
30,-84,1,148,-32,14,-1,-1
15,-81,37,144,-31,10,-1,-1
24,-75,64,153,-30,13,-1,-1
13,-71,81,140,-28,10,-1,-1
20,-71,86,151,-35,13,-1,-1
11,-64,89,152,-33,18,-1,-1
15,-58,85,145,-34,10,-1,-1
14,-67,82,153,-33,12,-1,-1
12,-66,75,144,-42,12,-1,-1
15,-56,58,155,-33,18,-1,-1
22,-59,52,149,-34,13,-1,-1
16,-56,39,163,-32,15,0,-1
24,-56,25,154,-41,14,-1,-1
14,-54,19,164,-45,16,-1,-1
15,-71,0,161,-47,16,-1,-1
10,-59,-7,173,-43,12,-1,-1
16,-64,-8,163,-39,27,-1,-1
11,-62,-15,162,-50,20,-1,-1
12,-64,-24,164,-49,14,-1,-1
2,-84,-44,155,-58,15,-1,-1
7,-91,-37,151,-47,19,-1,-1
10,-75,-39,156,-41,17,-1,-1
8,-76,-38,146,-45,16,-1,-1
14,-77,-39,139,-39,24,-1,-1
12,-79,-52,139,-44,11,-1,-1
8,-85,-65,149,-58,16,-1,-1
9,-84,-59,146,-50,15,-1,-1
4,-80,-57,140,-50,22,-1,-1
23,-71,-49,163,-34,20,-1,-1
38,-77,-45,155,-40,21,-1,-1
44,-79,-41,167,-47,23,-1,-1
29,-71,-38,153,-37,15,-1,-1
13,-69,-30,174,-43,19,-1,-1
35,-74,-24,172,-33,18,-1,-1
64,-74,-16,175,-33,19,-1,-1
77,-83,-11,180,-42,12,-1,-1
64,-79,-19,179,-32,22,-1,-1
54,-67,-4,195,-38,23,-1,-1
51,-63,-6,204,-30,26,-1,-1
32,-69,1,209,-37,24,-1,-1
28,-64,-7,219,-40,21,-1,-1
17,-70,-3,240,-36,12,-1,-1
4,-68,-9,258,-35,16,-1,-1
3,-65,-6,281,-36,17,-1,-1
-6,-63,2,254,-29,14,-1,-1
-15,-64,2,240,-35,12,-1,-1
-19,-67,-3,217,-44,10,-1,-1
-19,-60,7,200,-35,14,-1,-1
-18,-68,12,171,-33,12,-1,-1
-11,-63,14,152,-41,15,-1,-1
-15,-81,16,154,-45,13,-1,-1
-15,-71,11,144,-39,19,-1,-1
-1,-64,23,162,-34,18,-1,-1
18,-63,25,157,-48,20,-1,-1
39,-64,28,175,-39,24,-1,-1
38,-59,29,154,-48,27,-1,-1
39,-66,31,162,-38,23,-1,-1
41,-81,32,160,-45,28,-1,-1
36,-65,37,161,-26,26,-1,-1
42,-71,29,156,-41,25,-1,-1
33,-72,18,154,-44,23,-1,-1
17,-83,17,171,-47,28,-1,-1
6,-89,5,169,-55,24,-1,-1
-17,-82,13,164,-42,21,-1,-1
-10,-85,12,168,-37,22,-1,-1
-12,-74,13,183,-46,22,-1,-1
-11,-92,5,161,-49,22,-1,-1
-17,-84,9,180,-53,19,-1,-1
-26,-88,-1,182,-52,12,-1,-1
-11,-91,3,175,-44,14,-1,-1
-8,-84,3,190,-49,11,-1,-1
-1,-66,11,182,-45,15,-1,-1
3,-71,19,183,-47,9,-1,-1
16,-80,18,216,-40,15,-1,-1
21,-80,11,217,-38,11,-1,-1
23,-79,9,211,-42,12,-1,-1
33,-70,-2,197,-38,16,-1,-1
44,-61,-12,168,-33,14,-1,-1
41,-64,-27,144,-35,23,-1,-1
38,-66,-74,139,-26,13,-1,-1
43,-76,-111,157,-34,9,-1,-1
41,-72,-135,194,-39,15,-1,-1
39,-71,-178,205,-34,14,-1,-1
40,-78,-206,208,-32,14,-1,-1
39,-85,-208,214,-32,8,0,-1
35,-81,-179,201,-41,13,-1,-1
36,-78,-20,174,-36,7,-1,-1
23,-77,130,144,-47,11,-1,-1
31,-84,220,122,-37,7,-1,-1
41,-76,224,120,-41,8,-1,-1
42,-75,200,99,-27,13,-1,-1
46,-73,187,89,-38,10,-1,-1
49,-74,183,92,-36,16,-1,-1
41,-73,159,65,-42,15,-1,-1
17,-71,149,70,-39,16,-1,-1
11,-74,99,76,-44,16,-1,-1
20,-71,54,100,-43,14,-1,-1
28,-66,67,132,-34,21,-1,-1
25,-70,101,172,-40,24,0,-1
31,-73,86,189,-40,17,-1,-1
18,-76,49,220,-47,19,-1,-1
20,-73,5,272,-46,19,-1,-1
24,-75,-63,327,-36,16,-1,-1
26,-73,-105,322,-36,22,-1,-1
29,-63,-122,295,-36,18,-1,-1
32,-71,-96,261,-45,16,-1,-1
35,-81,-37,233,-51,20,-1,-1
42,-81,26,224,-37,22,-1,-1
42,-68,55,219,-47,32,-1,-1
46,-60,45,276,-28,28,-1,-1
49,-62,22,346,-49,26,-1,-1
46,-66,-14,355,-43,31,-1,-1
49,-75,-86,334,-40,30,-1,-1
43,-71,-171,212,-55,27,-1,-1
39,-72,-246,108,-47,20,-1,-1
28,-71,-311,77,-49,23,-1,-1
25,-64,-345,54,-41,24,-1,-1
21,-57,-325,70,-38,21,-1,-1
18,-63,-272,93,-39,18,-1,-1
12,-74,-231,154,-43,21,-1,-1
3,-69,-190,179,-43,14,-1,0
6,-71,-122,187,-45,21,-1,-1
5,-64,-59,234,-33,20,-1,-1
0,-57,0,220,-37,26,-1,-1
5,-62,46,181,-39,24,-1,-1
3,-68,74,109,-50,21,-1,-1
4,-65,98,-2,-48,20,-1,-1
-2,-66,120,-107,-48,20,-1,-1
5,-67,130,-115,-39,22,-1,-1
7,-63,146,-119,-33,23,-1,-1
10,-67,139,-94,-46,25,-1,-1
10,-71,117,-51,-46,17,-1,-1
11,-73,118,8,-40,17,-1,-1
9,-64,147,75,-42,19,-1,-1
15,-67,125,140,-35,16,-1,-1
13,-72,109,179,-37,21,-1,-1
17,-70,83,226,-37,17,-1,-1
11,-73,57,249,-38,11,-1,-1
11,-80,53,293,-40,4,-1,-1
5,-78,36,293,-29,12,-1,-1
25,-79,17,298,-42,6,-1,-1
20,-78,-10,309,-40,6,-1,-1
33,-82,-17,305,-27,12,-1,-1
44,-81,-27,292,-33,8,-1,-1
51,-89,-37,276,-35,14,-1,-1
29,-87,-52,303,-32,11,-1,-1
-6,-89,-53,407,-39,8,-1,-1
-35,-82,-46,395,-34,8,-1,-1
-34,-80,-46,352,-35,11,-1,-1
-33,-77,-42,324,-30,12,-1,-1
-11,-81,-51,276,-40,4,-1,-1
-20,-83,-49,243,-45,9,-1,-1
-9,-91,-41,233,-43,6,-1,-1
16,-76,-34,229,-35,15,-1,-1
37,-65,-11,259,-28,16,-1,-1
48,-68,-8,303,-35,9,-1,-1
54,-78,-6,284,-40,13,-1,-1
50,-71,-11,222,-42,15,-1,-1
39,-76,-12,161,-38,6,-1,-1
42,-72,-9,106,-49,10,-1,-1
35,-67,1,56,-47,8,-1,-1
37,-58,11,59,-38,17,-1,-1
35,-49,20,146,-43,10,0,-1
38,-50,23,164,-43,15,-1,-1
27,-68,19,106,-49,11,-1,-1
25,-63,21,20,-47,5,-1,-1
19,-66,19,-23,-50,11,-1,-1
27,-60,17,-41,-39,11,-1,-1
23,-59,2,-62,-41,13,-1,-1
27,-55,-6,35,-37,18,-1,-1
27,-54,-2,112,-38,14,-1,-1
20,-69,27,136,-53,10,-1,-1
27,-78,15,119,-42,17,-1,-1
19,-77,12,121,-51,15,-1,-1
28,-80,26,88,-44,22,-1,-1
25,-65,43,71,-41,21,-1,-1
21,-65,60,55,-45,17,-1,-1
23,-63,79,45,-47,21,-1,-1
19,-75,94,35,-53,18,-1,-1
20,-81,77,78,-49,17,-1,-1
19,-79,67,104,-31,23,-1,-1
20,-71,47,147,-35,25,-1,-1
28,-73,22,175,-30,28,-1,-1
24,-73,2,211,-31,24,-1,-1
33,-75,-29,229,-32,25,-1,-1
33,-88,-60,250,-36,18,-1,-1
29,-80,-76,255,-38,26,-1,-1
25,-68,-101,261,-37,23,-1,-1
29,-80,-119,261,-36,25,-1,-1
32,-69,-117,275,-31,23,-1,-1
25,-68,-125,269,-32,25,-1,-1
30,-73,-113,254,-38,24,-1,-1
29,-63,-113,258,-30,28,-1,-1
24,-68,-105,230,-33,30,-1,0
30,-59,-100,222,-37,30,-1,-1
28,-62,-97,173,-34,27,0,-1
28,-72,-96,161,-38,26,-1,-1
20,-73,-91,211,-44,31,-1,-1
35,-61,-46,254,-32,32,-1,-1
28,-57,-10,261,-35,29,-1,-1
23,-60,9,228,-37,32,-1,-1
24,-50,34,182,-39,22,-1,-1
18,-53,80,171,-36,27,-1,-1
15,-55,145,149,-33,25,-1,-1
19,-63,172,116,-36,31,-1,-1
18,-61,168,114,-35,24,-1,-1
12,-59,148,138,-47,17,-1,-1
16,-70,92,153,-48,20,-1,-1
13,-72,65,180,-41,16,-1,0
11,-73,28,200,-43,15,-1,0
15,-68,3,222,-42,13,-1,-1
12,-71,-23,208,-42,9,-1,-1
13,-66,-36,222,-37,7,-1,-1
18,-60,-20,217,-28,2,-1,-1
14,-66,-9,214,-37,7,-1,-1
16,-74,-48,204,-32,3,-1,-1
17,-78,-121,214,-29,12,-1,-1
21,-68,-219,202,-34,11,-1,-1
17,-59,-255,208,-21,17,-1,-1
21,-69,-224,204,-38,16,-1,-1
20,-69,-133,197,-30,14,-1,-1
14,-73,-49,181,-39,20,-1,-1
13,-74,-36,175,-35,20,-1,-1
12,-71,-119,176,-44,14,-1,-1
15,-62,-111,173,-37,18,-1,-1
27,-71,-71,182,-53,16,-1,-1
42,-70,-8,160,-45,14,-1,-1
50,-77,55,176,-57,16,-1,-1
43,-80,117,168,-51,16,-1,0
38,-71,175,165,-49,21,-1,-1
39,-63,207,171,-49,20,-1,-1
24,-64,224,152,-56,19,-1,-1
24,-71,221,160,-52,14,-1,-1
21,-74,205,163,-54,15,-1,0
17,-75,179,159,-45,23,-1,-1
9,-80,137,162,-50,16,-1,-1
6,-75,115,167,-54,12,-1,-1
5,-70,78,165,-46,9,-1,-1
1,-72,44,163,-51,10,-1,-1
7,-83,15,169,-53,9,-1,-1
8,-72,-5,170,-36,13,-1,-1
18,-72,-18,167,-37,20,-1,-1
30,-64,6,186,-29,13,-1,-1
33,-64,8,163,-41,10,-1,-1
39,-71,1,165,-30,9,-1,-1
41,-78,9,163,-39,9,-1,-1
46,-74,50,144,-48,7,-1,-1
58,-68,114,148,-32,10,-1,-1
56,-56,126,141,-32,19,-1,-1
54,-63,66,140,-29,20,-1,-1
22,-53,-23,131,-40,13,-1,-1
-30,-67,-113,129,-47,14,-1,-1
-95,-63,-146,161,-39,18,-1,-1
-117,-64,-142,142,-41,16,-1,-1
-100,-56,-149,161,-28,20,-1,-1
-57,-60,-149,155,-42,21,-1,-1
-18,-61,-135,158,-39,21,-1,-1
28,-53,-110,160,-37,23,-1,-1
63,-62,-83,161,-47,21,-1,-1
109,-66,-49,167,-43,16,-1,-1
151,-67,-18,183,-41,21,-1,-1
178,-61,13,172,-34,20,-1,-1
179,-65,38,204,-31,24,-1,-1
166,-58,67,206,-36,27,-1,-1
185,-60,64,224,-38,22,-1,-1
215,-71,36,252,-47,16,-1,-1
125,-80,4,250,-31,26,-1,-1
33,-79,-18,261,-32,16,-1,-1
-22,-63,-30,237,-30,21,-1,-1
-54,-61,-41,219,-29,23,-1,-1
-72,-59,-35,198,-31,17,-1,-1
-71,-60,-24,188,-35,18,-1,-1
-72,-53,1,180,-32,21,-1,-1
-39,-52,7,153,-34,18,-1,-1
-1,-60,15,181,-28,25,-1,-1
31,-57,23,193,-41,28,-1,-1
36,-64,23,190,-31,24,-1,-1
26,-68,31,195,-33,21,-1,-1
13,-66,30,185,-44,21,-1,-1
32,-66,24,188,-35,23,-1,-1
48,-77,-4,172,-53,29,-1,-1
47,-76,-45,179,-39,27,-1,-1
31,-68,-5,176,-34,26,-1,-1
1,-80,18,187,-38,22,-1,-1
-8,-75,-5,181,-50,17,-1,-1
-26,-70,-42,211,-21,24,-1,-1
-43,-70,-88,193,-47,17,-1,-1
-55,-71,-96,194,-37,21,-1,0
-63,-77,-67,194,-48,19,-1,-1
-60,-82,-14,184,-35,20,-1,-1
-62,-79,21,206,-43,22,-1,-1
-52,-80,30,201,-32,20,-1,-1
-44,-78,28,171,-44,14,-1,-1
-37,-76,27,162,-36,20,-1,-1
-25,-75,22,138,-43,20,-1,0
-13,-70,15,117,-37,16,0,-1
-12,-76,4,140,-32,20,-1,-1
0,-74,14,175,-39,19,-1,-1
7,-72,28,180,-30,24,-1,-1
22,-71,46,211,-28,18,-1,-1
19,-69,57,203,-31,17,-1,-1
33,-70,62,193,-28,11,-1,-1
21,-79,56,170,-22,12,-1,-1
29,-72,51,155,-31,8,-1,-1
30,-79,44,129,-25,12,-1,-1
26,-66,38,108,-25,7,-1,-1
31,-69,15,94,-25,6,-1,-1
20,-84,-3,76,-35,6,-1,-1
24,-89,-14,82,-31,-4,-1,-1
26,-85,-38,89,-29,7,-1,-1
27,-76,-60,113,-33,9,-1,-1
32,-70,-97,121,-29,9,-1,-1
36,-72,-118,127,-40,6,-1,-1
41,-75,-122,149,-42,4,-1,-1
41,-86,-85,151,-50,5,-1,-1
37,-87,45,156,-55,7,-1,-1
42,-85,209,167,-47,14,-1,-1
52,-79,243,173,-36,14,-1,-1
55,-62,202,193,-50,17,-1,-1
45,-65,149,200,-51,18,-1,-1
39,-70,125,218,-54,8,-1,-1
37,-56,131,209,-59,13,-1,-1
39,-57,131,222,-49,23,-1,-1
33,-56,118,229,-51,25,-1,-1
33,-63,59,226,-42,29,-1,-1
37,-64,0,223,-38,36,-1,-1
31,-60,-74,223,-50,31,-1,-1
37,-60,-123,217,-51,40,-1,-1
34,-75,-132,226,-56,36,-1,-1
33,-67,-135,235,-53,30,-1,-1
43,-56,-149,273,-34,40,-1,-1
75,-57,-150,263,-37,44,-1,-1
83,-54,-143,230,-29,33,-1,-1
96,-58,-143,209,-39,32,-1,-1
93,-74,-127,207,-36,35,-1,-1
128,-66,-105,204,-37,27,-1,-1
141,-65,-80,211,-34,29,-1,-1
76,-56,-59,223,-29,28,-1,-1
18,-59,-48,286,-28,32,-1,-1
-19,-66,-46,302,-34,19,-1,-1
-49,-77,-44,231,-43,16,-1,-1
-52,-76,-31,138,-45,18,-1,-1
-50,-71,-6,64,-26,14,-1,-1
-32,-66,10,54,-25,22,-1,-1
-13,-66,21,51,-26,24,-1,-1
5,-77,32,54,-32,18,-1,-1
-2,-86,30,68,-45,18,-1,-1
3,-85,48,88,-44,17,-1,-1
-6,-76,77,137,-21,21,-1,-1
-2,-63,91,154,-24,20,-1,-1
0,-63,82,140,-32,16,-1,-1
-6,-71,60,128,-36,10,-1,-1
-9,-79,38,78,-43,8,-1,-1
-11,-80,30,108,-36,3,-1,-1
-4,-69,1,110,-34,12,-1,-1
-9,-72,-32,126,-28,13,-1,-1
-2,-69,-57,149,-40,14,0,-1
-5,-90,-62,144,-39,18,-1,-1
-3,-90,-52,177,-39,11,-1,-1
0,-70,8,194,-31,14,-1,-1
6,-75,99,210,-33,22,-1,-1
28,-75,135,245,-41,27,-1,-1
46,-62,124,248,-24,20,-1,-1
52,-56,80,270,-27,21,-1,-1
59,-59,35,267,-29,14,-1,-1
61,-65,-11,278,-34,8,-1,-1
74,-83,-33,289,-41,12,-1,-1
64,-76,-41,303,-28,7,-1,-1
58,-66,-6,296,-31,17,-1,-1
50,-58,37,279,-24,14,-1,-1
37,-71,56,244,-29,13,-1,-1
19,-73,54,243,-42,15,-1,-1
10,-78,27,194,-47,13,-1,-1
4,-80,-12,177,-37,21,-1,-1
0,-61,-43,166,-34,21,-1,-1
10,-69,-68,143,-31,24,-1,-1
5,-66,-97,132,-43,18,-1,-1
2,-78,-117,111,-47,27,-1,-1
5,-72,-123,91,-48,28,-1,-1
11,-68,-116,63,-39,24,-1,-1
5,-61,-105,76,-33,20,-1,0
17,-57,-85,82,-26,23,-1,-1
21,-53,-66,85,-43,18,-1,-1
11,-76,-54,46,-42,14,-1,-1
9,-66,-39,72,-51,18,-1,-1
19,-67,-19,143,-43,23,-1,-1
19,-60,3,172,-28,26,-1,-1
25,-59,19,145,-44,32,-1,-1
29,-62,28,86,-52,21,-1,-1
29,-68,29,80,-50,23,-1,-1
20,-70,42,51,-37,24,-1,-1
28,-66,46,45,-42,27,-1,-1
27,-70,64,65,-41,27,-1,-1
26,-72,79,82,-41,24,-1,-1
37,-66,93,146,-32,32,-1,-1
21,-67,89,188,-43,28,-1,-1
26,-76,89,213,-43,24,-1,-1
35,-79,126,244,-40,23,-1,-1
53,-79,120,247,-51,22,-1,-1
60,-65,102,355,-40,23,-1,-1
57,-64,78,390,-41,24,-1,-1
56,-51,43,340,-36,26,-1,-1
44,-69,13,322,-36,18,-1,-1
33,-83,-24,280,-41,15,-1,-1
26,-73,-49,252,-39,21,-1,-1
23,-59,-66,242,-33,12,-1,-1
14,-62,-67,218,-29,17,-1,-1
14,-62,-71,206,-33,18,-1,-1
16,-70,-73,173,-28,17,-1,-1
9,-71,-79,167,-32,8,-1,-1
15,-83,-76,158,-32,10,-1,-1
13,-69,-60,161,-27,14,-1,-1
19,-65,-56,161,-25,20,-1,-1
28,-74,-49,120,-30,10,-1,-1
33,-80,-55,126,-38,10,-1,-1
40,-83,-55,97,-45,7,-1,-1
52,-86,-50,125,-29,8,-1,-1
77,-83,-36,169,-36,16,-1,-1
67,-75,-30,241,-35,8,-1,-1
47,-65,-33,286,-32,15,-1,-1
13,-77,-35,256,-43,15,-1,-1
-15,-79,-35,179,-33,25,-1,-1
-54,-74,-15,141,-39,29,-1,-1
-61,-72,16,79,-32,24,-1,-1
-62,-63,29,60,-37,30,-1,-1
-61,-55,26,42,-42,28,-1,-1
-58,-68,-13,47,-51,29,-1,-1
-50,-66,-59,59,-53,28,-1,-1
-31,-77,-123,69,-47,27,-1,-1
-13,-79,-142,96,-58,32,-1,-1
21,-72,-114,125,-50,26,-1,-1
36,-68,-69,161,-38,27,-1,-1
61,-68,-28,186,-46,19,-1,-1
63,-66,-4,155,-47,8,-1,-1
72,-61,19,160,-46,18,-1,-1
80,-67,41,127,-40,20,-1,-1
92,-57,73,111,-39,21,-1,-1
93,-56,99,138,-38,22,-1,-1
86,-54,98,179,-35,23,-1,-1
85,-58,105,177,-42,23,-1,-1
78,-63,112,252,-31,18,-1,-1
60,-51,118,277,-27,22,-1,-1
59,-58,122,293,-33,16,-1,-1
53,-66,107,307,-31,20,-1,-1
46,-68,101,312,-34,20,-1,-1
44,-66,85,294,-28,16,-1,-1
35,-68,83,267,-34,19,-1,-1
37,-63,87,216,-33,13,-1,-1
25,-68,95,201,-26,14,-1,-1
34,-74,99,204,-33,13,-1,-1
18,-63,95,206,-38,24,-1,-1
28,-70,86,207,-34,14,-1,-1
19,-64,81,197,-26,15,-1,-1
11,-64,48,202,-34,16,-1,-1
22,-62,-5,189,-32,16,-1,-1
10,-67,-52,240,-43,14,-1,-1
4,-62,-90,272,-26,9,-1,-1
9,-65,-104,311,-32,6,-1,-1
2,-64,-87,308,-36,16,-1,-1
6,-57,-47,254,-44,8,-1,-1
1,-67,-60,226,-37,10,-1,-1
0,-70,-169,172,-42,13,-1,-1
0,-59,-289,130,-50,18,-1,-1
-1,-66,-277,108,-41,11,-1,0
-10,-61,-220,141,-41,22,-1,-1
-4,-64,-161,109,-43,14,-1,-1
1,-59,-108,71,-37,21,-1,-1
16,-57,-55,33,-44,30,-1,-1
40,-61,-2,31,-45,19,-1,-1
51,-64,45,157,-48,24,-1,-1
44,-63,70,201,-44,23,-1,-1
28,-69,102,184,-49,24,-1,-1
12,-67,119,158,-45,20,-1,-1
-8,-72,110,124,-48,21,-1,-1
-19,-74,105,98,-36,23,-1,-1
-53,-69,110,111,-47,25,-1,-1
-68,-76,110,116,-34,27,-1,-1
-57,-70,118,123,-32,23,-1,-1
-36,-71,121,136,-41,24,-1,-1
-14,-70,115,161,-41,18,-1,-1
16,-77,92,179,-41,22,-1,-1
27,-67,88,192,-38,20,-1,-1
43,-60,83,204,-31,21,-1,-1
66,-70,70,207,-30,15,-1,-1
55,-71,60,217,-34,18,-1,-1
68,-78,27,248,-42,17,-1,-1
69,-77,-12,265,-33,14,-1,-1
63,-73,-50,277,-41,22,-1,-1
66,-63,-97,242,-41,17,-1,-1
50,-61,-128,225,-39,14,-1,-1
58,-59,-103,208,-41,24,-1,-1
62,-46,-94,185,-41,24,-1,-1
86,-53,-124,177,-39,29,-1,-1
88,-39,-200,162,-38,35,-1,-1
64,-38,-267,101,-37,28,-1,-1
32,-46,-289,55,-45,25,-1,-1
18,-35,-222,28,-50,27,-1,-1
10,-37,-139,100,-43,24,-1,-1
13,-39,-66,187,-40,26,-1,-1
5,-41,-22,218,-37,22,-1,-1
11,-38,21,200,-42,24,0,-1
12,-46,120,153,-45,22,-1,-1
23,-58,168,119,-44,17,-1,-1
50,-62,186,72,-44,28,-1,-1
30,-63,201,38,-30,23,-1,-1
26,-66,218,2,-43,17,-1,-1
-18,-67,228,49,-33,18,-1,-1
-76,-82,218,188,-34,19,-1,-1
-113,-78,201,220,-41,11,-1,-1
-123,-77,176,202,-25,12,-1,-1
-93,-86,143,139,-31,20,-1,-1
-39,-90,102,125,-22,18,-1,-1
4,-88,68,115,-27,12,-1,-1
45,-89,17,129,-29,24,-1,-1
91,-97,-27,150,-31,18,-1,-1
123,-102,-68,172,-38,26,-1,-1
123,-91,-84,224,-35,35,-1,-1
102,-84,-95,248,-24,27,-1,-1
78,-77,-92,280,-29,37,-1,-1
30,-90,-88,276,-35,32,-1,-1
13,-84,-94,276,-36,21,-1,-1
61,-77,-90,263,-39,22,-1,-1
123,-75,-84,248,-33,17,-1,-1
122,-71,-70,214,-40,13,-1,-1
76,-77,-55,207,-50,13,-1,-1
77,-94,-72,167,-43,6,-1,-1
80,-82,-85,179,-47,6,-1,-1
89,-83,-95,169,-27,6,-1,-1
86,-75,-102,174,-46,13,-1,-1
71,-77,-98,184,-43,10,-1,-1
33,-74,-90,190,-44,8,-1,-1
13,-61,-71,204,-46,2,-1,-1
-16,-50,-40,196,-37,9,-1,-1
-26,-49,-12,210,-36,16,-1,-1
-37,-68,3,218,-35,21,-1,-1
-35,-70,7,206,-31,28,-1,-1
-45,-77,10,224,-38,21,-1,-1
-24,-78,9,208,-35,20,-1,-1
-2,-82,4,214,-33,28,-1,-1
3,-76,6,232,-31,36,-1,-1
0,-67,4,229,-28,34,-1,-1
-8,-57,4,235,-19,33,-1,-1
-13,-68,-10,242,-31,20,-1,-1
9,-64,-1,241,-41,10,-1,-1
38,-71,-10,241,-32,6,-1,-1
53,-76,-21,237,-47,0,-1,-1
53,-78,-39,245,-27,8,-1,-1
44,-76,1,230,-36,0,-1,-1
37,-83,268,217,-32,-1,-1,0
16,-99,274,222,-40,3,-1,-1
5,-102,306,191,-39,4,-1,-1
-12,-87,242,193,-36,5,-1,-1
-21,-77,113,175,-30,17,-1,-1
-28,-70,-20,169,-26,9,-1,0
-23,-54,-127,154,-39,14,-1,-1
-20,-55,-140,149,-29,15,-1,-1
-3,-53,-12,137,-50,17,-1,-1
-14,-52,94,128,-50,18,-1,-1
-7,-44,131,127,-34,22,-1,-1
0,-39,118,131,-35,27,-1,-1
7,-38,130,149,-35,26,-1,-1
17,-39,150,147,-46,27,-1,-1
15,-46,179,148,-35,31,-1,-1
18,-56,190,147,-39,26,-1,-1
2,-66,165,163,-44,29,-1,-1
-9,-69,104,184,-39,23,-1,-1
-14,-85,29,175,-48,29,0,-1
-34,-82,-52,161,-40,27,-1,-1
-37,-87,-131,158,-39,24,-1,-1
-38,-92,-188,147,-43,26,-1,-1
-37,-86,-239,177,-44,25,-1,-1
-16,-87,-265,211,-37,22,-1,-1
13,-80,-288,168,-34,31,-1,-1
33,-86,-308,132,-44,26,-1,-1
38,-91,-323,105,-30,19,-1,-1
47,-88,-311,80,-48,14,-1,-1
46,-91,-278,53,-27,21,-1,-1
41,-82,-227,76,-33,14,-1,-1
34,-82,50,130,-31,15,-1,-1
25,-96,159,189,-34,10,-1,-1
16,-92,161,195,-39,14,-1,-1
13,-78,181,134,-33,19,-1,-1
5,-64,114,60,-32,11,-1,-1
10,-57,61,31,-32,8,-1,-1
15,-52,8,28,-33,13,-1,-1
21,-48,-28,11,-32,7,-1,-1
21,-35,-44,36,-36,8,-1,-1
25,-42,-34,74,-43,17,-1,-1
31,-46,-2,111,-28,4,-1,-1
32,-42,70,160,-45,15,-1,0
39,-47,125,221,-41,14,-1,-1
42,-39,154,327,-30,19,-1,-1
39,-43,161,412,-37,19,-1,-1
39,-59,122,476,-33,25,-1,-1
40,-53,74,552,-45,23,-1,-1
41,-60,31,617,-38,20,-1,-1
44,-60,-12,587,-36,22,-1,-1
37,-52,-57,508,-27,26,-1,-1
37,-58,-87,408,-37,25,-1,-1
38,-62,-118,279,-43,19,-1,-1
36,-69,-132,191,-43,15,-1,-1
31,-62,-137,134,-49,17,-1,-1
31,-61,-120,134,-37,19,-1,-1
35,-70,-95,143,-38,14,-1,-1
38,-69,-76,115,-40,18,-1,-1
29,-72,-67,59,-47,26,-1,-1
27,-72,-59,-46,-46,28,-1,-1
26,-84,-65,-177,-41,27,-1,-1
20,-84,-65,-287,-47,23,-1,-1
20,-76,-62,-329,-42,25,-1,-1
21,-77,-49,-346,-40,25,-1,-1
25,-83,-42,-372,-46,28,-1,-1
33,-85,-22,-317,-48,21,-1,-1
35,-88,-13,-171,-41,23,-1,-1
39,-87,4,48,-43,18,0,-1
42,-88,24,234,-37,22,-1,-1
46,-87,59,337,-44,19,-1,-1
43,-81,114,385,-20,31,-1,-1
43,-72,142,428,-38,21,-1,-1
44,-83,137,411,-24,23,-1,-1
30,-83,135,382,-34,22,-1,-1
17,-85,125,365,-30,19,-1,-1
5,-77,119,351,-21,19,-1,-1
-4,-74,103,367,-16,22,-1,-1
19,-74,84,391,-19,21,-1,-1
12,-73,48,479,-34,13,-1,-1
19,-81,40,548,-36,15,-1,-1
19,-78,26,597,-29,19,-1,0
17,-81,16,576,-23,14,-1,-1
13,-83,2,533,-39,14,-1,-1
14,-78,-7,467,-28,16,-1,-1
10,-82,-9,401,-44,14,-1,-1
11,-82,-16,313,-49,9,-1,-1
17,-80,-17,219,-38,12,-1,-1
13,-79,-18,103,-39,8,-1,-1
25,-79,-24,20,-41,7,-1,0
60,-77,-28,-34,-47,3,-1,0
101,-76,-22,-42,-39,6,-1,-1
94,-75,-27,-64,-38,2,-1,0
154,-84,-24,-114,-50,-1,-1,0
194,-69,-23,-149,-33,-2,-1,-1
171,-84,-19,-212,-34,-1,-1,-1
114,-68,-19,-266,-23,0,-1,-1
47,-64,-11,-239,-24,1,-1,-1
-6,-60,-27,-143,-31,-1,-1,-1
-50,-62,-29,4,-29,9,-1,-1
-72,-68,-29,107,-36,13,-1,-1
-77,-47,-17,175,-17,13,-1,-1
-76,-46,-10,194,-35,19,-1,-1
-60,-51,-2,193,-31,24,-1,-1
-40,-54,0,202,-41,28,-1,-1
-44,-48,15,213,-40,29,-1,-1
-51,-51,22,222,-32,30,-1,-1
-44,-51,35,241,-39,38,-1,-1
-41,-57,50,247,-45,37,-1,-1
-44,-59,51,247,-42,31,-1,-1
-43,-71,49,237,-46,29,-1,-1
-43,-64,44,237,-35,26,-1,-1
-41,-60,93,245,-42,28,-1,-1
-31,-54,97,328,-39,27,-1,-1
-30,-72,68,341,-39,28,-1,-1
-21,-82,39,317,-30,18,-1,-1
-16,-78,-6,305,-43,11,-1,-1
-12,-74,-27,311,-38,21,-1,-1
-1,-71,-60,299,-48,16,-1,-1
12,-60,-89,300,-40,18,-1,-1
13,-55,-98,276,-33,17,-1,-1
19,-61,-108,240,-47,14,-1,-1
29,-63,-112,228,-39,13,-1,-1
26,-53,-102,193,-35,21,-1,-1
38,-51,-92,197,-44,14,-1,-1
34,-44,-87,187,-34,22,-1,-1
42,-56,-75,182,-34,21,-1,-1
50,-61,-66,169,-41,22,-1,-1
40,-60,-68,146,-38,19,-1,-1
48,-74,-65,145,-38,12,-1,-1
40,-68,-56,123,-50,20,-1,-1
42,-75,-46,142,-46,30,-1,-1
45,-70,-44,190,-39,22,-1,-1
41,-69,-31,250,-35,31,-1,-1
43,-76,-35,272,-45,24,-1,-1
42,-76,-24,241,-46,27,-1,-1
64,-70,-29,178,-43,26,-1,-1
134,-65,-24,122,-41,27,-1,-1
152,-69,-26,75,-52,20,-1,-1
109,-75,-19,55,-49,26,-1,-1
74,-70,-10,60,-52,20,-1,-1
67,-74,-1,55,-51,19,-1,-1
47,-65,20,67,-47,19,-1,-1
41,-65,24,77,-49,20,-1,-1
53,-61,37,91,-35,16,-1,-1
81,-68,41,135,-40,23,-1,-1
100,-64,49,162,-49,16,-1,-1
125,-78,52,180,-38,15,-1,-1
193,-85,55,197,-43,12,-1,-1
209,-86,55,199,-35,19,-1,-1
138,-72,52,205,-38,21,-1,-1
110,-74,58,216,-46,13,-1,-1
13,-73,49,203,-35,20,-1,-1
-65,-66,54,211,-33,14,-1,-1
-120,-50,53,210,-36,15,-1,-1
-147,-42,45,205,-40,18,-1,-1
-138,-67,41,209,-33,16,-1,-1
-135,-61,45,209,-40,15,-1,-1
-116,-67,38,209,-38,20,-1,-1
-101,-63,39,208,-27,20,-1,-1
-96,-49,42,195,-36,16,-1,-1
-82,-44,48,202,-38,18,-1,-1
-89,-67,57,204,-32,20,-1,-1
-75,-64,68,197,-39,17,-1,-1
-70,-61,73,190,-37,14,-1,-1
-62,-64,80,195,-31,11,-1,-1
-49,-59,72,204,-35,13,-1,-1
-41,-78,66,190,-33,20,-1,-1
-23,-82,50,198,-35,22,-1,-1
2,-76,40,186,-41,24,-1,0
9,-79,22,175,-26,18,-1,-1
38,-69,15,178,-39,18,-1,-1
73,-65,4,187,-35,29,-1,-1
98,-70,11,180,-36,20,-1,-1
88,-68,3,175,-33,20,-1,-1
87,-60,7,176,-44,17,-1,-1
76,-51,2,178,-39,29,-1,-1
63,-55,-6,165,-38,22,-1,-1
55,-56,-2,151,-42,25,-1,-1
45,-51,-12,174,-37,28,-1,-1
37,-52,-9,158,-34,28,-1,-1
37,-51,-10,173,-36,23,-1,0
28,-59,-17,157,-36,19,-1,-1
28,-67,-20,163,-53,27,-1,-1
21,-62,-29,170,-46,21,-1,-1
22,-58,-31,172,-41,30,-1,-1
22,-60,-30,165,-32,28,-1,-1
28,-67,-30,173,-31,24,-1,-1
28,-83,-24,172,-40,26,-1,-1
36,-92,-38,171,-38,23,-1,-1
44,-93,-33,179,-48,15,-1,-1
58,-91,-25,170,-41,19,-1,-1
71,-72,-25,189,-42,13,-1,-1
53,-67,-19,184,-34,11,-1,-1
29,-71,-22,177,-39,16,-1,-1
33,-72,-18,192,-43,9,-1,-1
33,-73,-27,191,-39,12,-1,-1
44,-70,-28,183,-44,11,-1,-1
45,-73,-26,184,-43,13,-1,-1
39,-76,-21,194,-36,12,-1,-1
51,-58,-20,197,-37,9,-1,-1
46,-50,-15,186,-41,6,-1,-1
56,-23,-18,186,-49,1,-1,-1
56,113,-12,185,-42,-3,-1,-1
65,10,-12,202,-41,3,-1,-1
82,11,3,200,-60,31,-1,-1
70,13,30,182,-80,33,-1,-1
46,5,52,165,-79,35,-1,-1
31,15,48,158,-63,31,-1,-1
28,12,31,153,-46,23,-1,-1
21,14,7,127,-31,32,-1,-1
21,13,-19,129,-7,43,-1,-1
25,10,-25,117,9,42,-1,-1
23,9,-53,132,8,45,-1,-1
38,-5,-71,120,15,44,-1,-1
41,-95,-96,144,-13,48,-1,-1
36,-147,-102,133,-32,36,-1,-1
24,-177,-81,141,-41,18,-1,-1
22,-231,-29,138,-47,11,-1,-1
20,-264,12,165,-49,19,-1,-1
20,-282,6,169,-45,10,-1,-1
21,-294,-68,190,-43,10,-1,-1
13,-299,-58,207,-43,12,-1,-1
12,-290,4,239,-57,24,-1,-1
14,-261,61,246,-62,18,-1,-1
12,-249,102,250,-55,11,-1,-1
3,-249,133,246,-46,17,-1,-1
6,-254,148,239,-41,8,-1,-1
-4,-273,142,262,-36,13,-1,-1
-1,-286,121,309,-46,6,-1,-1
6,-284,103,342,-30,16,-1,-1
10,-280,88,343,-34,24,-1,-1
11,-264,74,310,-20,30,-1,-1
15,-249,55,300,-29,35,-1,-1
16,-247,38,260,-28,29,-1,-1
7,-241,19,208,-31,30,-1,-1
13,-251,7,223,-34,23,-1,-1
13,-249,-2,164,-22,30,-1,-1
16,-242,-10,92,-36,27,-1,-1
16,-235,-17,14,-35,22,-1,-1
12,-217,-21,-9,-45,26,-1,-1
13,-193,-28,134,-42,14,-1,-1
9,-181,-37,165,-46,14,-1,-1
10,-162,-49,155,-43,11,-1,-1
7,-146,-55,141,-40,5,-1,-1
4,-137,-68,105,-45,14,-1,-1
8,-126,-60,62,-37,9,-1,-1
5,-108,-61,25,-44,10,-1,-1
-2,-102,-62,9,-40,7,-1,-1
8,-100,-59,11,-40,10,-1,-1
7,-70,-53,71,-33,15,-1,-1
8,-54,-47,122,-27,10,-1,-1
8,-43,-40,151,-35,18,-1,-1
11,-49,-43,174,-29,7,-1,-1
14,-51,-37,194,-30,9,-1,-1
14,-63,-19,184,-37,15,-1,0
19,-60,-16,205,-31,21,-1,-1
14,-57,-9,199,-34,15,-1,-1
26,-46,-1,206,-34,15,-1,-1
16,-47,-3,205,-35,10,-1,-1
19,-65,-3,206,-41,8,-1,-1
19,-60,2,209,-47,10,-1,-1
20,-62,7,199,-32,1,-1,-1
19,-53,18,204,-38,13,-1,-1
23,-35,19,204,-34,9,-1,-1
21,-40,14,209,-35,13,-1,-1
16,-40,15,195,-36,11,-1,-1
6,-41,11,193,-43,12,-1,-1
17,-52,17,196,-39,16,-1,-1
8,-41,16,192,-29,21,-1,-1
15,-33,21,198,-36,23,-1,-1
15,-36,13,201,-37,14,-1,-1
12,-39,13,193,-40,19,-1,-1
10,-34,7,185,-42,19,-1,-1
14,-27,2,187,-50,22,-1,-1
15,-34,1,186,-42,16,-1,-1
35,-13,7,189,-40,19,-1,-1
47,-22,3,189,-43,24,-1,-1
59,-25,2,183,-41,22,-1,-1
59,-24,-7,179,-37,21,-1,-1
65,-23,-10,172,-48,23,-1,-1
69,-25,-7,176,-41,19,-1,-1
64,-23,-7,170,-46,24,-1,-1
49,-26,-2,174,-32,25,-1,-1
52,-18,-3,172,-43,19,-1,-1
35,-33,-5,171,-37,20,-1,-1
23,-32,0,179,-23,20,-1,-1
12,-35,-2,169,-43,21,-1,-1
7,-38,-7,167,-33,20,-1,-1
7,-42,-2,185,-45,21,-1,-1
-2,-54,-13,167,-43,19,-1,-1
13,-51,-5,180,-29,29,-1,-1
7,-55,-3,168,-42,36,-1,-1
16,-65,-2,168,-36,28,-1,-1
10,-63,-8,173,-52,28,-1,-1
16,-63,-5,182,-46,32,-1,-1
20,-62,-2,179,-40,33,-1,-1
20,-67,7,186,-42,34,-1,-1
27,-66,7,192,-38,26,-1,-1
31,-74,-6,184,-45,21,-1,-1
25,-85,-2,186,-41,21,-1,-1
26,-81,-11,190,-45,18,-1,-1
32,-73,4,190,-37,18,-1,-1
35,-73,0,200,-29,18,-1,-1
30,-82,8,183,-40,14,-1,-1
39,-89,-2,194,-33,17,-1,-1
28,-91,-2,180,-40,15,-1,-1
35,-89,-2,192,-42,8,-1,-1
32,-93,3,189,-34,17,-1,-1
36,-85,11,177,-33,14,-1,-1
34,-95,6,189,-41,15,-1,-1
33,-94,-8,184,-42,6,-1,-1
29,-96,-3,170,-35,13,-1,-1
22,-98,-1,182,-35,12,-1,-1
38,-97,1,179,-34,10,-1,-1
22,-107,-7,175,-36,11,-1,-1
27,-136,-4,175,-40,9,-1,-1
28,-127,-9,185,-32,6,-1,-1
25,-126,-4,171,-38,12,-1,-1
27,-124,-7,175,-33,9,-1,-1
25,-129,-12,172,-42,18,-1,-1
29,-124,-10,174,-37,14,-1,-1
25,-135,-10,167,-33,23,-1,-1
26,-125,-18,161,-34,14,-1,-1
30,-122,-5,167,-30,21,-1,-1
30,-119,-4,172,-37,29,-1,-1
20,-131,-4,150,-31,30,-1,-1
27,-134,-7,165,-42,26,-1,-1
27,-135,-6,162,-30,28,-1,-1
28,-132,-7,166,-32,20,0,-1
24,-133,-2,161,-26,21,0,-1
29,-128,-4,161,-35,25,-1,-1
28,-123,4,158,-35,22,-1,-1
28,-113,3,152,-29,23,-1,-1
22,-108,2,157,-32,21,-1,-1
28,-119,-4,145,-33,20,-1,-1
25,-122,-2,152,-41,24,-1,-1
25,-121,-5,142,-35,18,-1,-1
23,-119,-7,149,-36,22,-1,-1
29,-116,-1,160,-36,13,-1,-1
19,-112,-3,148,-37,26,-1,-1
27,-118,-7,165,-41,22,-1,-1
18,-120,-2,162,-37,22,-1,-1
21,-120,-7,174,-37,23,-1,-1
20,-116,-6,175,-33,17,-1,-1
20,-112,-5,172,-36,25,-1,-1
23,-103,-6,179,-37,8,-1,-1
18,-99,-11,175,-39,21,-1,-1
20,-107,-3,179,-37,17,0,0
14,-107,-9,172,-37,17,-1,0
20,-101,1,190,-41,15,-1,0
22,-104,-7,187,-34,23,-1,0
16,-89,-3,185,-42,24,-1,-1
25,-103,-4,183,-41,20,-1,-1
18,-94,-1,184,-31,23,-1,-1
24,-91,-1,178,-44,20,-1,-1
19,-101,2,193,-31,20,-1,-1
18,-100,-1,190,-38,17,-1,-1
22,-101,-1,182,-38,18,-1,-1
20,-98,-3,197,-32,15,-1,-1
17,-96,1,181,-42,20,-1,-1
22,-104,-3,181,-31,17,-1,-1
20,-92,-1,184,-41,14,-1,-1
17,-92,-4,185,-33,19,-1,-1
15,-101,-9,173,-41,10,-1,-1
22,-97,0,181,-35,17,-1,-1
13,-85,-3,185,-46,20,-1,-1
27,-83,1,181,-45,17,-1,-1
13,-96,2,179,-30,21,-1,-1
17,-87,-1,185,-41,19,-1,-1
23,-94,-3,182,-41,19,-1,-1
13,-89,2,186,-46,12,-1,-1
18,-89,-1,179,-39,23,-1,-1
19,-91,5,182,-38,17,-1,-1
24,-82,6,191,-41,19,-1,-1
22,-80,-1,174,-39,21,-1,-1
17,-79,3,173,-47,24,-1,-1
21,-90,-7,175,-45,16,-1,-1
14,-80,-5,178,-38,12,-1,-1
22,-84,-3,178,-46,15,-1,-1
23,-76,3,177,-31,15,-1,-1
18,-75,5,181,-43,19,-1,-1
24,-73,-2,185,-30,12,-1,-1
20,-74,-4,181,-36,13,-1,-1
24,-78,-5,181,-45,15,-1,-1
17,-75,2,180,-32,12,-1,-1
21,-66,-3,177,-43,12,-1,-1
21,-60,0,177,-34,15,-1,-1
21,-51,0,182,-42,23,-1,-1
24,-57,0,185,-30,12,-1,-1
15,-50,-2,175,-42,18,-1,-1
20,-68,3,174,-39,18,-1,-1
18,-70,-9,178,-40,25,-1,-1
24,-58,0,184,-38,16,-1,-1
22,-53,-7,183,-37,17,-1,-1
21,-57,-3,186,-49,26,-1,-1
22,-56,-4,196,-39,24,-1,-1
17,-51,-3,179,-39,22,-1,-1
21,-50,6,190,-40,30,-1,-1
23,-48,2,179,-32,29,-1,-1
23,-48,3,184,-37,23,-1,-1
20,-56,2,181,-34,28,-1,-1
25,-59,-2,173,-37,21,-1,-1
16,-57,-1,184,-39,18,-1,-1
14,-48,-3,173,-31,19,-1,-1
23,-64,11,185,-28,28,-1,-1
21,-54,1,183,-35,24,-1,-1
17,-59,4,184,-36,13,-1,-1
20,-64,-3,177,-41,22,-1,-1
21,-59,4,180,-34,20,-1,-1
21,-56,4,182,-28,16,-1,-1
21,-48,8,184,-29,23,-1,-1
18,-58,0,189,-43,22,-1,-1
22,-66,-6,182,-49,15,-1,-1
18,-62,2,172,-48,24,-1,-1
22,-64,3,186,-39,21,-1,-1
23,-62,3,177,-39,29,0,-1
20,-54,1,179,-45,23,-1,-1
20,-67,6,173,-40,23,-1,-1
24,-57,5,186,-41,19,-1,-1
17,-66,5,178,-38,24,-1,-1
21,-67,4,176,-40,18,-1,-1
25,-53,-2,178,-43,25,-1,-1
21,-66,3,178,-39,22,-1,-1
19,-60,-3,184,-44,20,-1,-1
23,-57,8,180,-43,17,-1,-1
20,-59,-2,176,-43,19,-1,-1
18,-62,-1,181,-44,13,-1,-1
25,-57,-2,181,-31,15,-1,-1
24,-51,7,182,-47,16,-1,-1
26,-47,5,176,-33,20,-1,-1
15,-50,-1,180,-45,12,-1,-1
21,-60,-8,169,-47,19,-1,-1
15,-51,-6,178,-31,20,-1,0
25,-59,4,177,-40,23,-1,-1
21,-43,0,180,-37,21,-1,-1
31,-45,6,179,-37,27,-1,-1
20,-43,0,183,-37,23,-1,0
29,-48,1,170,-40,19,-1,-1
23,-53,-1,183,-34,25,-1,-1
23,-44,9,176,-37,25,-1,-1
26,-36,7,185,-28,25,-1,-1
24,-41,4,180,-34,29,-1,-1
25,-47,5,184,-44,17,-1,-1
20,-49,-1,186,-39,22,-1,-1
17,-52,8,180,-39,19,-1,-1
27,-46,5,187,-35,20,-1,-1
30,-41,8,188,-37,26,-1,-1
20,-47,-3,181,-45,25,-1,-1
27,-53,0,175,-33,23,-1,-1
18,-51,2,177,-42,19,-1,-1
27,-51,5,185,-39,20,-1,-1
19,-47,2,177,-33,21,-1,-1
16,-44,-5,180,-37,17,-1,-1
25,-49,-4,186,-41,22,-1,-1
19,-58,-5,176,-45,13,-1,-1
15,-54,-3,180,-39,22,-1,-1
20,-51,-3,181,-38,14,-1,-1
19,-55,5,168,-39,22,-1,-1
26,-64,5,190,-32,19,-1,-1
22,-51,0,178,-43,15,-1,-1
25,-47,0,187,-31,16,-1,-1
22,-55,2,177,-35,19,-1,-1
23,-50,0,181,-31,25,-1,-1
24,-58,2,188,-31,21,-1,-1
25,-60,7,171,-36,25,-1,-1
26,-47,2,178,-33,20,-1,-1
30,-50,-1,180,-39,25,-1,-1
21,-58,4,180,-36,23,-1,-1
23,-59,-2,175,-36,20,-1,-1
23,-53,1,184,-39,16,-1,-1
23,-50,1,174,-43,26,-1,-1
21,-62,4,169,-38,16,-1,-1
19,-57,-5,183,-42,20,-1,-1
20,-73,-1,172,-31,19,-1,-1
20,-75,-7,176,-48,17,-1,-1
12,-80,-5,170,-46,18,-1,-1
17,-67,3,178,-29,24,-1,-1
24,-63,9,183,-37,30,-1,-1
24,-60,2,176,-42,26,-1,-1
19,-76,-2,187,-38,23,-1,-1
19,-77,-5,173,-47,23,-1,-1
20,-73,-7,178,-33,17,-1,-1
27,-70,1,180,-37,21,-1,-1
28,-66,5,193,-30,24,-1,-1
31,-68,9,181,-41,20,-1,-1
23,-72,3,183,-32,18,-1,-1
26,-69,-1,176,-38,18,-1,-1
21,-74,-7,184,-49,24,-1,-1
24,-74,-6,187,-40,20,-1,-1
24,-70,-3,174,-40,15,-1,-1
22,-73,3,183,-33,22,-1,-1
27,-67,18,183,-28,5,-1,-1
25,-70,12,182,-39,11,-1,-1
15,-77,6,173,-45,3,-1,-1
18,-80,0,174,-43,8,-1,-1
17,-85,4,179,-36,16,-1,-1
25,-70,17,178,-39,18,-1,-1
22,-66,11,181,-20,16,-1,-1
18,-68,11,168,-46,11,0,-1
19,-68,-3,176,-45,16,0,-1
23,-65,-4,180,-38,16,-1,-1
21,-61,-2,172,-42,25,-1,-1
25,-57,11,178,-36,16,-1,-1
22,-67,5,179,-35,22,-1,-1
23,-65,-2,182,-32,21,-1,-1
26,-63,0,180,-49,18,-1,-1
22,-68,-5,180,-33,26,-1,-1
21,-58,-1,178,-37,24,-1,-1
28,-56,-1,175,-34,29,-1,-1
31,-53,0,184,-39,25,-1,-1
23,-65,-12,184,-39,25,-1,-1
28,-61,1,169,-37,25,-1,-1
19,-64,-6,193,-40,22,-1,-1
25,-62,-8,172,-42,23,-1,-1
16,-66,-6,179,-40,21,-1,-1
22,-64,-8,178,-43,26,-1,-1
20,-69,0,181,-31,23,-1,-1
19,-69,-8,178,-47,18,-1,-1
25,-75,-7,178,-32,17,-1,-1
23,-81,-4,184,-41,24,-1,-1
21,-79,-9,175,-38,13,-1,-1
23,-77,-5,172,-43,12,-1,-1
20,-74,-6,181,-43,20,-1,0
23,-62,-3,183,-45,20,-1,-1
33,-67,-5,177,-41,19,-1,-1
20,-69,4,186,-34,20,-1,-1
29,-59,4,182,-30,21,-1,-1
25,-60,-2,180,-35,19,-1,-1
26,-66,-4,180,-42,22,-1,-1
24,-70,-4,175,-42,16,-1,-1
19,-67,-6,175,-37,18,-1,-1
20,-57,5,195,-35,20,-1,-1
24,-45,2,170,-26,27,-1,-1
28,-54,8,189,-37,27,-1,-1
25,-64,-7,173,-47,21,-1,-1
24,-74,-6,183,-46,20,-1,-1
21,-73,-11,180,-44,21,-1,-1
22,-68,1,173,-38,23,-1,-1
28,-60,6,181,-25,16,-1,-1
25,-56,5,192,-39,20,-1,-1
31,-50,6,195,-27,23,-1,-1
27,-56,-2,166,-40,20,-1,-1
26,-59,-4,182,-34,20,-1,-1
29,-52,0,182,-38,20,-1,-1
21,-54,5,169,-42,21,-1,-1
30,-56,-4,183,-33,24,-1,-1
21,-57,2,177,-45,17,-1,-1
23,-61,-6,186,-41,6,-1,-1
21,-58,-2,167,-40,10,-1,-1
16,-58,1,189,-41,9,-1,-1
24,-56,-6,167,-37,13,-1,-1
22,-64,4,189,-39,18,-1,-1
19,-56,4,175,-31,20,-1,-1
24,-60,0,178,-41,18,-1,-1
22,-59,-6,166,-31,14,-1,-1
22,-54,4,184,-41,13,-1,0
21,-59,2,173,-33,15,-1,-1
28,-55,6,182,-31,20,-1,-1
25,-49,2,184,-31,12,-1,-1
31,-61,7,180,-37,22,-1,-1
28,-59,2,179,-32,22,-1,-1
25,-58,-8,183,-41,19,-1,-1
21,-55,-5,171,-46,22,-1,-1
19,-60,-5,183,-43,23,-1,-1
25,-49,7,185,-35,26,-1,-1
28,-49,6,189,-34,30,-1,-1
28,-50,7,176,-37,17,-1,-1
24,-63,-4,176,-53,15,-1,-1
12,-65,-1,175,-51,8,-1,-1
23,-70,-6,180,-47,14,-1,-1
17,-64,4,176,-34,20,-1,-1
26,-59,9,184,-34,16,-1,-1
20,-59,4,180,-46,19,-1,-1
31,-74,5,178,-44,11,-1,-1
17,-64,-4,184,-44,16,-1,-1
19,-70,-5,174,-35,16,-1,-1
21,-69,-7,177,-49,18,-1,-1
25,-66,-2,180,-40,22,-1,-1
26,-59,6,187,-29,24,-1,-1
28,-66,5,183,-31,19,-1,-1
21,-72,-5,176,-33,24,-1,-1
24,-75,-15,177,-50,26,-1,-1
13,-87,-9,188,-43,19,-1,-1
28,-87,-8,177,-44,26,-1,-1
22,-72,3,179,-31,29,-1,-1
25,-57,9,183,-25,35,-1,-1
25,-65,8,191,-41,30,-1,-1
21,-69,1,172,-35,25,-1,-1
19,-74,-8,183,-47,26,-1,-1
22,-69,2,183,-39,20,-1,-1
22,-71,4,193,-28,31,-1,-1
24,-74,10,178,-36,27,-1,-1
28,-79,4,185,-35,21,-1,-1
24,-71,3,188,-37,14,-1,-1
22,-89,-1,163,-43,19,-1,-1
19,-82,-3,189,-35,11,-1,-1
23,-76,4,185,-35,18,-1,-1
25,-77,4,188,-27,19,-1,-1
21,-73,4,182,-31,15,-1,-1
21,-75,1,177,-39,29,-1,-1
16,-62,-4,180,-39,11,-1,-1
21,-69,-2,173,-34,18,-1,-1
22,-72,-4,189,-31,16,-1,-1
23,-67,-8,182,-43,11,-1,-1
19,-64,-1,174,-31,11,-1,-1
22,-61,-4,177,-31,16,-1,-1
18,-68,3,183,-30,22,-1,-1
26,-54,-4,175,-45,13,-1,0
23,-54,-4,177,-38,21,-1,-1
20,-58,-1,176,-44,19,-1,-1
24,-61,2,187,-30,20,-1,-1
28,-45,-1,181,-44,23,-1,-1
22,-47,2,181,-39,21,-1,-1
22,-64,-1,166,-38,20,-1,-1
25,-67,-10,180,-44,32,-1,-1
21,-59,-6,178,-40,24,-1,0
27,-54,-1,182,-37,23,-1,-1
20,-55,-5,173,-45,30,-1,-1
21,-46,-3,185,-43,20,-1,-1
23,-51,-7,180,-40,20,-1,-1
23,-62,-6,182,-51,28,-1,-1
19,-55,-2,187,-43,19,-1,-1
24,-56,1,182,-42,23,-1,-1
26,-58,11,180,-35,20,-1,0
24,-62,-1,182,-48,19,-1,-1
21,-59,-3,173,-38,14,-1,-1
21,-58,2,189,-45,8,-1,-1
21,-59,6,172,-32,15,-1,-1
26,-58,4,195,-36,17,-1,-1
22,-60,3,183,-34,13,-1,-1
29,-71,1,178,-39,19,-1,-1
19,-73,-6,183,-42,13,-1,0
23,-74,-1,187,-37,11,-1,-1
24,-67,-1,184,-30,21,-1,-1
30,-71,2,174,-24,13,-1,-1
25,-65,0,189,-36,13,-1,-1
22,-71,1,181,-27,21,-1,-1
24,-74,5,185,-23,17,-1,-1
26,-68,-2,175,-36,15,-1,-1
23,-77,-1,172,-29,16,-1,-1
22,-74,-5,180,-46,18,-1,-1
19,-62,-1,179,-35,20,-1,-1
22,-60,7,188,-31,19,-1,-1
23,-63,3,176,-30,16,-1,0
18,-70,-2,177,-38,18,-1,-1
24,-70,-6,179,-40,23,-1,-1
20,-64,-5,170,-44,21,-1,-1
21,-62,-9,184,-36,22,-1,-1
24,-54,3,171,-28,23,-1,-1
26,-49,1,192,-29,22,-1,-1
27,-60,7,174,-28,24,-1,-1
31,-61,1,184,-35,16,-1,-1
24,-66,-1,180,-34,24,-1,-1
21,-77,-1,174,-35,29,-1,-1
22,-65,3,183,-28,23,-1,-1
26,-59,1,184,-33,18,-1,-1
21,-56,-3,183,-37,24,-1,-1
26,-54,4,176,-31,22,-1,-1
19,-62,2,179,-38,24,-1,-1
27,-60,2,169,-46,10,-1,-1
22,-62,1,181,-33,18,-1,-1
22,-60,6,181,-43,18,-1,-1
20,-58,7,175,-28,22,-1,-1
24,-67,-1,187,-38,20,-1,-1
23,-63,3,174,-28,18,-1,-1
23,-60,0,178,-32,21,-1,-1
20,-53,2,192,-35,15,-1,-1
19,-58,-4,177,-37,16,-1,-1
29,-61,0,183,-37,17,-1,-1
14,-68,-4,171,-38,20,-1,-1
25,-67,0,180,-34,21,-1,-1
25,-61,1,186,-35,16,0,-1
22,-72,3,183,-43,22,-1,-1
22,-65,-3,182,-37,25,-1,-1
31,-65,3,174,-36,25,-1,-1
28,-66,-1,183,-42,25,-1,-1
19,-66,-1,184,-37,31,-1,-1
29,-66,3,181,-43,22,-1,-1
30,-61,2,179,-27,30,-1,-1
26,-52,6,192,-33,28,-1,0
23,-59,2,180,-28,22,-1,-1
29,-65,3,177,-48,23,-1,-1
21,-65,-1,181,-39,19,-1,-1
19,-76,2,181,-37,19,-1,-1
24,-70,5,182,-44,18,-1,0
22,-69,1,181,-37,16,-1,-1
21,-81,-1,184,-44,17,-1,-1
19,-78,-4,185,-42,21,-1,-1
25,-73,-1,169,-41,16,-1,-1
26,-60,3,184,-33,21,-1,-1
26,-67,0,187,-37,23,-1,-1
27,-76,5,172,-38,22,-1,0
27,-74,-4,193,-37,26,-1,-1
23,-76,0,183,-36,19,-1,-1
29,-67,0,190,-31,20,-1,-1
23,-72,4,183,-34,29,-1,0
28,-76,5,189,-41,17,-1,-1
25,-76,1,171,-34,22,-1,-1
26,-81,1,187,-36,22,-1,-1
22,-79,4,179,-36,21,-1,-1
25,-80,9,185,-29,28,-1,-1
26,-73,4,181,-32,17,-1,-1
23,-76,6,176,-42,17,-1,-1
23,-73,-4,170,-44,18,-1,-1
21,-81,-1,186,-34,16,-1,-1
25,-74,0,171,-37,20,-1,-1
24,-73,1,184,-36,18,-1,-1
27,-75,-2,181,-40,18,-1,-1
18,-77,-5,169,-49,21,-1,-1
24,-69,9,183,-36,22,-1,-1
24,-65,4,183,-34,29,-1,-1
25,-56,11,190,-29,27,-1,-1
28,-78,0,182,-32,25,-1,-1
21,-72,-3,182,-36,18,-1,-1
23,-79,-4,180,-46,20,-1,-1
28,-75,1,192,-25,24,-1,-1
29,-62,8,182,-29,21,-1,-1
27,-61,12,187,-31,23,-1,-1
29,-71,0,175,-44,20,-1,-1
22,-79,-6,176,-36,22,-1,-1
29,-76,-3,184,-31,23,-1,-1
24,-73,4,178,-41,23,-1,-1
22,-73,1,184,-33,19,-1,-1
22,-71,0,179,-38,12,-1,-1
25,-74,2,174,-40,24,-1,-1
19,-57,2,186,-30,18,-1,-1
24,-59,7,176,-38,27,-1,-1
20,-61,-1,186,-35,24,-1,-1
23,-56,7,178,-32,24,-1,-1
32,-57,2,180,-37,20,-1,-1
21,-71,7,198,-37,26,-1,-1
27,-61,9,175,-39,23,-1,-1
23,-56,4,188,-25,21,-1,-1
30,-66,5,182,-36,19,-1,-1
21,-59,0,185,-38,23,-1,-1
28,-57,4,173,-26,20,-1,-1
28,-51,7,186,-31,25,-1,-1
27,-64,4,192,-38,21,-1,-1
24,-53,2,180,-35,24,-1,-1
27,-64,1,183,-31,19,-1,-1
27,-64,1,185,-35,20,-1,-1
24,-61,4,178,-30,19,-1,-1
21,-54,4,183,-27,24,-1,-1
31,-51,9,185,-34,17,-1,-1
26,-51,3,176,-34,16,-1,-1
21,-67,-5,193,-38,17,-1,-1
26,-78,-1,168,-37,26,-1,-1
26,-71,2,192,-34,29,-1,-1
25,-69,-1,179,-42,20,-1,0
28,-74,2,187,-37,22,-1,-1
20,-82,-6,163,-42,22,-1,-1
24,-71,0,177,-37,20,-1,-1
25,-83,0,183,-41,25,-1,-1
22,-77,3,183,-30,25,-1,-1
25,-73,2,179,-42,23,-1,-1
21,-76,5,175,-33,22,-1,-1
24,-65,7,186,-36,21,-1,-1
26,-64,3,169,-36,22,-1,-1
23,-66,5,183,-34,17,-1,-1
25,-68,5,174,-40,14,0,-1
19,-61,3,178,-36,17,-1,-1
24,-56,6,171,-33,17,-1,-1
25,-54,6,174,-34,12,-1,-1
22,-63,7,180,-42,18,-1,-1
28,-67,1,173,-38,19,-1,-1
20,-67,-3,177,-38,23,-1,-1
24,-64,0,179,-37,18,-1,-1
23,-73,1,189,-42,22,-1,-1
20,-69,1,175,-37,15,-1,-1
25,-78,-1,187,-36,28,-1,-1
24,-76,-1,178,-36,22,-1,-1
29,-61,2,181,-32,22,-1,-1
25,-58,3,195,-37,23,-1,-1
22,-63,5,180,-35,18,-1,-1
29,-69,5,181,-25,19,-1,-1
24,-74,5,180,-41,21,-1,-1
24,-68,5,186,-31,23,-1,-1
25,-61,-2,183,-33,17,-1,-1
24,-71,5,171,-39,17,-1,-1
16,-80,6,188,-32,15,-1,-1
25,-79,3,180,-35,13,-1,-1
26,-86,7,182,-43,11,-1,-1
22,-81,0,179,-38,10,-1,-1
21,-79,2,183,-39,14,-1,-1
26,-77,-5,187,-40,17,-1,-1
26,-82,4,172,-37,17,-1,-1
20,-59,2,184,-39,16,-1,-1
26,-73,1,182,-37,31,-1,-1
24,-65,-1,191,-34,19,-1,-1
29,-73,3,170,-41,21,-1,-1
29,-72,0,192,-36,14,-1,-1
21,-68,-2,182,-41,24,-1,-1
23,-75,4,183,-32,25,-1,-1
27,-72,4,183,-31,22,-1,-1
22,-57,7,181,-35,21,-1,-1
23,-64,0,182,-29,22,-1,-1
25,-68,-1,181,-35,17,-1,-1
24,-66,-6,176,-34,24,-1,-1
20,-62,5,189,-33,23,-1,-1
22,-65,1,183,-32,34,-1,-1
29,-63,2,180,-32,22,-1,-1
26,-65,8,179,-31,29,-1,-1
24,-73,0,184,-36,20,-1,-1
28,-71,-4,190,-43,28,-1,-1
25,-67,-5,179,-28,23,-1,-1
25,-63,7,186,-33,29,-1,-1
28,-72,-1,182,-28,21,-1,-1
22,-68,4,182,-30,18,-1,-1
23,-68,-6,179,-41,19,-1,-1
20,-76,-4,179,-35,17,-1,-1
22,-70,-4,185,-40,14,-1,-1
22,-74,7,183,-29,21,-1,-1
27,-59,6,196,-40,16,-1,-1
21,-64,0,176,-36,17,-1,-1
24,-72,1,184,-44,12,-1,-1
19,-69,-8,176,-38,13,-1,-1
22,-64,-1,176,-35,15,-1,-1
22,-69,1,184,-35,23,-1,-1
26,-57,4,183,-32,23,-1,-1
30,-57,5,186,-30,22,-1,-1
23,-65,4,187,-24,28,-1,0
27,-68,1,174,-36,17,-1,-1
24,-64,0,184,-42,19,-1,-1
20,-65,4,179,-37,29,-1,-1
26,-62,2,183,-29,27,-1,-1
29,-70,10,187,-27,25,-1,-1
24,-72,9,191,-33,19,-1,-1
30,-65,9,179,-39,23,-1,-1
19,-75,-1,179,-44,21,-1,-1
26,-74,-2,181,-35,18,-1,-1
22,-55,0,183,-37,16,-1,-1
28,-57,0,175,-32,21,-1,-1
31,-51,7,187,-31,22,-1,-1
26,-55,-1,186,-41,22,-1,-1
20,-55,8,186,-30,14,-1,-1
28,-50,3,189,-35,23,-1,-1
23,-57,6,186,-43,20,-1,-1
26,-47,3,182,-42,19,-1,-1
25,2,3,182,-49,15,-1,-1
28,70,10,178,-41,18,-1,-1
34,71,11,187,-37,31,-1,-1
39,73,27,176,-45,36,-1,-1
23,76,28,185,-55,36,-1,-1
18,80,25,186,-58,34,-1,-1
12,82,15,177,-44,26,-1,-1
9,85,1,180,-43,27,-1,-1
9,89,4,176,-17,33,-1,-1
10,94,2,183,-12,35,-1,-1
21,38,2,190,6,33,-1,-1
18,-8,-4,196,-2,36,-1,-1
25,-57,-13,183,-14,35,-1,-1
26,-93,-8,193,-21,28,-1,-1
25,-115,-6,182,-27,35,-1,-1
25,-134,1,188,-34,27,-1,-1
24,-163,6,185,-38,23,-1,-1
29,-166,8,186,-32,24,-1,-1
26,-171,1,187,-44,15,-1,-1
27,-184,2,177,-39,16,-1,-1
24,-185,-4,177,-44,15,-1,-1
25,-183,4,184,-48,18,-1,-1
32,-167,3,181,-42,19,-1,-1
24,-175,5,180,-45,23,-1,-1
27,-168,-2,181,-43,11,-1,-1
20,-186,-4,172,-49,16,-1,-1
21,-188,5,175,-42,11,-1,-1
28,-192,-5,191,-40,12,-1,0
27,-187,-1,188,-37,17,-1,-1
30,-180,-3,192,-35,10,-1,-1
24,-173,-11,177,-33,20,-1,-1
24,-163,-5,184,-33,13,-1,-1
27,-162,-4,177,-29,13,-1,-1
27,-163,-5,192,-28,19,-1,-1
28,-165,-6,172,-31,23,-1,-1
33,-159,-3,188,-31,18,-1,-1
29,-142,-8,180,-34,26,-1,-1
29,-127,-1,179,-33,20,-1,-1
32,-129,2,181,-45,23,-1,-1
23,-108,2,182,-35,26,-1,0
30,-108,5,187,-38,23,-1,-1
30,-94,6,176,-34,23,-1,-1
27,-91,10,182,-36,15,-1,-1
31,-90,2,189,-36,14,-1,-1
24,-81,6,184,-32,18,-1,-1
24,-76,1,179,-32,14,-1,-1
25,-68,0,186,-41,23,-1,-1
26,-52,7,178,-36,18,-1,-1
26,-43,6,196,-33,19,-1,-1
18,-42,7,174,-31,20,-1,-1
27,-51,0,192,-29,22,-1,-1
25,-51,1,170,-42,19,-1,-1
20,-55,-4,193,-40,23,-1,-1
19,-54,-3,175,-40,23,-1,-1
28,-47,0,187,-37,22,-1,-1
25,-57,7,174,-30,31,-1,-1
27,-58,9,193,-37,20,-1,-1
31,-56,7,177,-37,18,-1,-1
16,-63,-1,195,-41,26,-1,-1
31,-60,6,184,-29,17,-1,-1
30,-57,7,186,-31,20,-1,-1
26,-61,8,184,-20,27,-1,0
29,-45,10,190,-33,27,-1,-1
31,-45,7,193,-30,20,-1,-1
27,-46,6,178,-35,20,-1,-1
25,-53,-2,187,-39,19,-1,-1
23,-45,-4,176,-39,20,-1,-1
23,-51,3,185,-34,26,-1,-1
26,-46,6,172,-24,22,-1,-1
25,-40,2,180,-38,22,-1,-1
23,-59,-1,177,-33,21,-1,-1
21,-55,-1,180,-43,17,-1,-1
18,-51,-3,185,-38,20,-1,-1
25,-55,8,179,-41,22,-1,-1
25,-45,4,184,-27,29,-1,-1
26,-42,5,182,-37,23,-1,-1
17,-54,-4,187,-48,24,-1,-1
20,-56,-10,171,-45,20,-1,-1
28,-58,-7,179,-54,18,-1,-1
15,-52,-5,173,-37,10,-1,-1
21,-58,1,183,-38,18,-1,-1
17,-59,5,176,-37,21,-1,-1
21,-55,3,178,-34,23,-1,-1
25,-72,0,184,-39,25,-1,-1
26,-56,0,179,-34,15,-1,-1
24,-60,1,180,-41,24,-1,-1
21,-63,8,196,-26,22,-1,-1
31,-55,11,184,-30,20,-1,-1
23,-63,7,190,-36,18,-1,-1
28,-57,-1,174,-37,16,-1,0
23,-52,-3,187,-40,22,0,-1
30,-55,5,179,-32,23,-1,-1
25,-55,9,186,-31,27,-1,-1
28,-58,4,184,-32,21,0,-1
21,-57,3,175,-37,24,-1,-1
23,-59,0,190,-35,20,-1,-1
26,-60,-4,183,-38,18,-1,-1
23,-59,-6,175,-41,17,-1,-1
18,-71,-14,177,-39,22,-1,-1
25,-70,-7,186,-42,15,-1,-1
18,-74,-1,176,-33,21,-1,-1
21,-64,2,192,-40,27,-1,-1
30,-66,9,169,-28,19,-1,-1
18,-70,-5,181,-47,15,-1,-1
17,-75,-8,180,-42,15,-1,-1
20,-79,-5,170,-39,25,-1,-1
25,-65,1,189,-36,24,-1,-1
28,-61,8,177,-23,20,-1,-1
22,-61,2,183,-40,19,-1,-1
20,-83,-8,168,-48,16,-1,-1
23,-81,-9,181,-39,19,-1,-1
16,-83,9,179,-41,18,-1,-1
30,-71,7,180,-29,26,-1,0
22,-70,10,183,-30,26,-1,-1
27,-76,2,181,-31,26,-1,-1
23,-84,-3,185,-36,21,-1,-1
18,-87,-8,170,-40,21,-1,-1
26,-83,1,177,-29,19,-1,-1
26,-77,-1,181,-31,20,-1,-1
21,-79,5,196,-24,26,-1,-1
30,-74,2,170,-37,20,-1,-1
20,-93,-2,186,-36,19,-1,-1
22,-104,-9,182,-39,16,-1,-1
23,-102,-2,179,-41,24,-1,-1
23,-106,-7,172,-35,19,-1,-1
22,-97,-5,179,-32,26,-1,-1
21,-98,0,182,-36,23,-1,-1
26,-89,5,188,-37,21,-1,-1
22,-86,1,179,-35,22,-1,-1
19,-102,-3,194,-41,23,-1,-1
27,-95,2,174,-29,21,-1,-1
24,-93,1,189,-40,18,-1,-1
23,-86,8,182,-31,23,-1,-1
32,-103,8,186,-42,20,-1,-1
26,-95,-3,181,-41,13,-1,-1
20,-98,-2,173,-42,8,-1,-1
26,-101,-1,184,-31,26,-1,-1
24,-89,3,185,-27,27,-1,-1
25,-89,3,176,-34,23,-1,0
25,-93,-1,185,-38,24,-1,-1
27,-92,-7,179,-39,23,-1,-1
21,-103,-10,166,-42,16,-1,-1
18,-102,-10,174,-38,19,-1,-1
25,-96,1,184,-46,26,-1,-1
28,-93,7,185,-31,25,-1,-1
24,-83,14,186,-21,23,-1,-1
27,-88,5,173,-37,23,-1,-1
25,-95,2,183,-38,20,-1,-1
22,-85,0,181,-35,24,-1,-1
25,-92,2,176,-34,30,-1,-1
21,-82,1,184,-41,21,-1,-1
27,-66,8,185,-23,29,-1,-1
30,-76,10,181,-37,18,-1,-1
23,-74,5,175,-28,16,-1,-1
23,-78,5,179,-37,17,-1,-1
23,-76,1,184,-31,21,-1,-1
23,-74,3,179,-34,22,-1,-1
24,-74,2,183,-36,22,-1,-1
22,-75,0,187,-32,21,-1,-1
31,-68,-2,174,-29,23,-1,-1
19,-72,-6,187,-34,14,-1,-1
27,-71,-8,180,-40,20,-1,-1
21,-81,-9,177,-39,11,-1,-1
22,-72,-5,179,-32,15,-1,-1
21,-72,2,186,-28,19,-1,-1
30,-76,-3,174,-36,22,-1,-1
20,-74,-10,189,-49,15,-1,-1
22,-70,-9,181,-33,21,-1,-1
23,-74,-6,179,-29,23,-1,-1
32,-74,0,184,-29,20,-1,-1
30,-70,4,182,-32,26,-1,-1
30,-66,10,191,-31,26,-1,-1
27,-58,3,183,-32,20,-1,-1
29,-67,-1,183,-41,29,-1,-1
22,-75,4,177,-39,20,-1,-1
24,-65,9,181,-26,10,-1,-1
21,-73,5,182,-37,17,-1,-1
23,-73,10,181,-38,19,-1,-1
31,-61,13,191,-30,29,-1,-1
30,-57,8,191,-27,21,-1,-1
24,-59,11,181,-39,17,-1,-1
20,-69,-3,179,-37,21,-1,-1
21,-78,-5,179,-39,13,-1,-1
18,-76,-6,189,-40,23,-1,-1
28,-54,2,181,-31,17,-1,-1
27,-62,7,182,-29,25,-1,-1
22,-59,7,191,-29,21,-1,-1
21,-65,-1,183,-43,21,-1,-1
23,-80,-4,177,-32,16,-1,-1
20,-74,1,190,-42,20,-1,-1
29,-62,0,179,-45,16,-1,-1
21,-52,8,190,-27,21,-1,-1
30,-57,6,179,-21,26,-1,-1
27,-50,10,182,-42,18,-1,-1
24,-58,1,183,-37,19,-1,-1
20,-54,7,181,-35,15,-1,-1
22,-53,5,176,-32,20,-1,-1
26,-61,10,177,-35,20,-1,-1
28,-51,13,190,-33,16,-1,-1
19,-53,7,182,-27,26,-1,-1
28,-60,5,180,-45,20,-1,-1
27,-54,1,184,-34,24,-1,0
25,-58,-7,184,-31,26,-1,-1
26,-50,2,178,-41,25,-1,-1
25,-45,8,183,-24,25,-1,-1
27,-49,2,187,-38,29,-1,-1
24,-43,1,178,-38,18,-1,-1
26,-57,6,188,-39,23,-1,-1
23,-54,6,176,-39,24,-1,-1
26,-40,8,187,-35,26,-1,-1
25,-52,10,191,-38,26,-1,-1
25,-51,5,172,-32,26,-1,-1
27,-54,5,184,-36,20,-1,-1
23,-57,-1,177,-33,18,-1,-1
26,-53,1,186,-40,19,-1,-1
19,-52,2,185,-37,24,-1,-1
28,-49,-1,181,-31,23,-1,-1
24,-57,-3,183,-39,21,-1,-1
28,-54,-5,177,-34,23,-1,-1
18,-54,-8,184,-36,23,-1,-1
26,-53,-4,183,-31,24,-1,-1
19,-50,-2,179,-30,27,-1,-1
29,-45,-1,193,-34,19,-1,-1
26,-48,-4,177,-38,23,-1,-1
22,-54,-5,178,-41,25,-1,-1
25,-49,3,185,-32,24,0,-1
22,-49,3,183,-40,26,-1,-1
31,-32,15,179,-24,27,-1,-1
27,-33,15,192,-20,24,-1,-1
24,-52,9,182,-28,20,-1,-1
21,-55,12,182,-39,14,-1,-1
28,-57,9,174,-38,18,-1,-1
19,-50,11,186,-31,15,-1,-1
30,-49,12,184,-30,26,-1,-1
27,-66,14,185,-37,21,-1,-1
26,-62,9,188,-32,17,-1,-1
24,-60,2,175,-46,16,-1,-1
17,-56,2,196,-40,15,-1,-1
26,-54,-1,180,-37,18,-1,-1
24,-62,1,191,-37,20,-1,-1
20,-54,-6,176,-36,20,-1,-1
27,-45,-1,178,-31,24,-1,-1
26,-48,5,190,-33,24,-1,-1
29,-54,3,175,-33,18,-1,-1
27,-59,-2,186,-34,25,-1,0
21,-72,-11,169,-42,18,-1,-1
23,-64,-7,192,-41,20,-1,-1
20,-52,-7,178,-38,20,-1,-1
25,-52,-1,174,-28,25,-1,-1
23,-67,-3,189,-41,25,-1,-1
20,-72,-1,182,-38,22,-1,-1
25,-84,-5,179,-38,18,-1,-1
20,-73,-7,178,-48,17,-1,-1
28,-70,-1,173,-36,19,-1,-1
18,-63,3,175,-38,19,-1,-1
22,-67,2,182,-35,15,-1,-1
25,-67,15,187,-32,18,-1,-1
24,-66,5,177,-37,17,-1,-1
26,-63,6,176,-30,22,-1,-1
18,-65,5,189,-40,14,-1,-1
25,-65,5,180,-34,18,-1,-1
25,-56,12,186,-38,19,-1,-1
29,-50,8,185,-20,17,-1,-1
25,-56,6,175,-38,21,-1,-1
25,-54,1,179,-40,27,-1,-1
26,-56,2,189,-36,18,-1,-1
26,-64,7,177,-37,29,-1,-1
24,-64,4,172,-35,23,-1,-1
30,-55,5,181,-27,25,-1,-1
24,-54,2,183,-34,22,-1,-1
29,-63,2,186,-45,25,-1,-1
27,-63,-4,172,-41,22,-1,-1
24,-57,1,186,-36,17,-1,-1
22,-54,10,176,-40,16,0,-1
23,-61,2,182,-37,21,-1,-1
23,-67,7,180,-39,25,-1,-1
25,-64,-5,182,-36,18,-1,-1
22,-61,3,172,-36,15,-1,-1
25,-58,-5,176,-33,19,-1,-1
20,-56,1,176,-33,20,-1,-1
25,-58,1,179,-37,20,-1,-1
22,-57,-3,185,-36,17,-1,-1
22,-49,4,175,-23,21,-1,-1
24,-58,0,183,-29,23,-1,-1
27,-64,2,183,-25,15,-1,-1
21,-66,-10,182,-38,17,-1,-1
24,-70,2,185,-29,17,-1,-1
26,-75,-5,177,-39,13,-1,0
26,-67,3,192,-29,22,-1,-1
25,-62,2,188,-29,19,-1,-1
31,-62,7,193,-38,13,-1,-1
14,-63,1,177,-41,20,-1,-1
27,-66,1,186,-34,20,-1,-1
22,-67,6,178,-41,14,-1,-1
26,-69,6,188,-33,21,-1,-1
24,-65,10,195,-30,19,-1,-1
26,-68,11,181,-42,21,-1,-1
19,-74,1,180,-43,12,-1,-1
26,-72,3,183,-38,12,-1,-1
18,-83,-1,170,-35,10,-1,-1
23,-74,3,190,-44,19,-1,-1
22,-66,3,184,-27,23,-1,-1
27,-61,13,181,-28,18,-1,-1
22,-62,5,179,-37,21,-1,-1
22,-68,-3,189,-39,19,-1,-1
21,-79,-1,171,-48,13,-1,-1
24,-75,-6,182,-37,24,-1,-1
23,-68,5,183,-34,21,-1,-1
24,-69,2,186,-33,17,-1,-1
21,-63,0,171,-35,23,-1,-1
24,-62,-3,189,-41,19,-1,-1
23,-63,-8,178,-48,20,-1,-1
23,-73,-2,178,-31,19,-1,-1
28,-66,-5,182,-35,21,-1,-1
26,-68,-6,180,-30,18,-1,-1
21,-70,4,183,-33,27,-1,-1
21,-69,-10,182,-35,22,-1,-1
23,-73,0,181,-46,22,-1,-1
26,-70,-1,179,-37,15,-1,-1
22,-68,2,180,-35,21,-1,-1
26,-61,9,178,-31,14,-1,-1
21,-59,-3,170,-31,15,-1,-1
22,-69,2,188,-35,12,-1,-1
20,-54,-2,175,-42,18,-1,-1
22,-65,3,173,-39,17,-1,-1
30,-61,-1,185,-28,10,-1,-1
20,-59,5,182,-40,19,-1,-1
27,-58,2,193,-34,17,-1,-1
21,-48,6,171,-39,17,-1,-1
25,-58,6,184,-29,16,-1,-1
24,-62,0,174,-38,12,-1,-1
17,-66,-2,177,-41,17,-1,-1
21,-66,-4,182,-44,14,-1,-1
23,-66,-1,190,-37,21,-1,-1
25,-50,4,180,-35,26,-1,-1
28,-53,7,182,-32,20,-1,-1
27,-57,-2,184,-32,14,-1,-1
23,-66,-5,174,-44,14,-1,-1
21,-63,-7,184,-46,20,-1,-1
17,-63,0,165,-33,18,-1,-1
25,-72,16,187,-30,24,-1,-1
26,-59,10,179,-30,18,-1,-1
22,-64,4,168,-44,18,-1,-1
22,-72,3,174,-42,18,-1,-1
20,-75,1,167,-46,15,-1,-1
17,-75,-4,182,-48,15,-1,-1
23,-65,1,168,-36,23,-1,-1
27,-59,5,184,-31,22,-1,-1
23,-67,0,176,-36,15,-1,-1
19,-69,1,190,-36,18,-1,-1
22,-70,-3,172,-44,22,-1,-1
19,-73,-3,182,-39,14,-1,-1
25,-72,2,189,-41,17,0,-1
21,-68,0,180,-31,24,-1,-1
23,-60,5,175,-33,19,-1,-1
25,-72,10,189,-27,24,-1,-1
28,-66,1,179,-38,20,-1,-1
28,-69,2,182,-40,17,-1,-1
27,-75,2,182,-34,18,-1,-1
28,-84,-3,183,-38,10,-1,-1
20,-81,1,175,-26,15,-1,-1
28,-76,-1,191,-34,24,-1,-1
26,-73,2,171,-37,17,-1,-1
22,-70,-2,176,-38,19,-1,-1
28,-78,-4,186,-44,17,-1,-1
23,-76,-1,168,-38,17,-1,-1
21,-73,4,179,-36,27,-1,-1
27,-78,1,181,-39,23,-1,-1
24,-75,-1,177,-39,16,-1,-1
22,-66,-1,173,-31,18,-1,-1
26,-67,-4,188,-36,17,-1,-1
23,-65,-3,172,-48,23,-1,-1
26,-57,-1,183,-32,26,-1,-1
29,-67,-1,182,-36,21,-1,0
24,-73,-2,179,-38,22,-1,-1
29,-77,-2,178,-41,15,-1,-1
27,-67,-4,181,-38,20,-1,-1
21,-67,-2,170,-34,24,-1,-1
31,-57,0,187,-40,20,-1,-1
26,-61,4,179,-27,21,-1,-1
26,-59,4,191,-35,20,-1,-1
23,-79,-1,180,-38,22,-1,-1
25,-71,1,178,-35,16,-1,-1
24,-66,2,175,-37,18,-1,-1
24,-62,2,191,-37,20,-1,-1
21,-59,0,177,-27,22,-1,-1
27,-63,2,184,-33,21,-1,-1
21,-53,4,172,-37,14,-1,-1
24,-54,-1,184,-23,15,-1,-1
24,-75,2,191,-38,17,-1,-1
27,-73,-4,177,-31,16,-1,-1
22,-71,-3,185,-40,14,-1,-1
29,-59,-5,180,-31,23,-1,-1
22,-61,5,183,-33,23,-1,-1
28,-65,-9,180,-40,23,-1,-1
20,-61,-7,182,-38,22,-1,-1
26,-58,-1,182,-37,21,-1,-1
27,-61,0,176,-33,22,-1,-1
21,-58,1,179,-31,22,-1,-1
28,-66,-1,176,-29,15,-1,-1
19,-65,-7,167,-39,12,-1,-1
16,-67,-9,179,-45,13,-1,-1
19,-66,-4,187,-37,8,-1,-1
21,-62,-4,166,-37,16,-1,-1
25,-62,7,185,-37,18,-1,-1
22,-55,2,180,-37,23,-1,-1
18,-59,4,182,-36,24,-1,0
23,-66,-2,176,-32,17,-1,-1
22,-74,-3,186,-47,24,-1,-1
18,-72,-9,173,-41,17,-1,-1
18,-63,-5,180,-45,22,-1,-1
26,-54,2,183,-34,22,-1,-1
25,-56,3,184,-37,23,-1,-1
21,-65,-5,174,-44,23,-1,-1
20,-71,-6,170,-40,19,-1,-1
21,-69,-5,174,-48,23,-1,-1
22,-67,-3,179,-35,23,-1,-1
27,-66,4,180,-37,20,-1,-1
24,-65,6,187,-21,20,-1,-1
22,-68,6,171,-40,18,-1,-1
22,-74,-4,180,-46,6,-1,-1
15,-68,-2,168,-41,14,-1,-1
18,-68,2,181,-45,14,-1,-1
20,-71,4,171,-40,17,-1,-1
22,-77,1,183,-35,14,-1,-1
19,-80,2,177,-47,19,-1,-1
17,-76,-1,173,-45,13,-1,-1
21,-85,-11,176,-49,10,-1,-1
13,-80,-9,159,-49,17,-1,-1
15,-77,2,187,-38,16,-1,-1
21,-71,-1,177,-42,17,-1,-1
22,-78,-2,166,-42,16,-1,-1
20,-75,1,181,-46,13,-1,-1
22,-66,-6,169,-42,17,-1,-1
19,-64,-2,178,-45,15,-1,-1
23,-57,-1,179,-39,22,-1,-1
22,-51,-2,172,-33,15,-1,-1
22,-60,5,193,-35,22,-1,-1
27,-65,1,175,-39,17,-1,-1
16,-61,5,171,-35,23,0,-1
31,-64,-4,177,-34,11,-1,-1
16,-67,-6,181,-50,14,-1,-1
17,-64,-3,171,-47,16,-1,-1
24,-63,-2,174,-37,18,-1,-1
23,-63,-1,176,-45,18,-1,-1
21,-68,-3,181,-44,12,-1,-1
17,-68,-10,172,-42,13,-1,-1
22,-71,-7,171,-44,12,-1,-1
18,-67,-2,171,-35,23,-1,-1
21,-61,-2,184,-31,24,-1,-1
28,-60,-3,172,-37,15,-1,-1
18,-72,4,178,-36,22,-1,-1
24,-71,-4,188,-34,20,-1,-1
19,-67,-9,177,-42,22,-1,-1
17,-65,-1,173,-45,14,-1,-1
23,-68,-3,179,-39,16,-1,-1
17,-70,4,179,-42,15,-1,-1
25,-66,1,190,-37,20,-1,-1
22,-64,3,187,-37,17,-1,-1
25,-63,5,178,-39,19,-1,-1
23,-65,-3,184,-34,22,-1,-1
27,-70,2,181,-39,25,-1,-1
21,-65,0,178,-26,22,-1,-1
23,-72,1,181,-42,24,-1,-1
26,-67,2,178,-35,23,-1,0
24,-60,1,178,-37,26,-1,-1
22,-64,1,186,-39,17,-1,-1
28,-67,-5,170,-38,15,-1,-1
18,-72,-2,182,-48,12,-1,-1
19,-74,-5,171,-40,13,-1,-1
19,-70,-2,187,-35,22,-1,-1
24,-71,-6,180,-47,13,-1,-1
16,-81,-10,170,-50,17,-1,-1
21,-69,-13,171,-43,17,-1,-1
17,-66,-7,179,-49,11,-1,-1
16,-70,-9,163,-42,25,-1,-1
21,-64,-8,179,-39,18,-1,-1
26,-59,-5,174,-38,20,-1,-1
19,-55,-5,184,-37,14,-1,-1
23,-60,-12,173,-49,16,-1,-1
22,-55,-2,172,-41,20,-1,-1
27,-58,-10,181,-38,21,-1,0
25,-43,10,178,-33,27,-1,-1
21,-37,0,190,-39,26,-1,-1
33,-17,7,171,-40,24,-1,-1
27,-7,2,186,-50,13,-1,-1
22,8,-3,177,-40,17,-1,-1
22,30,5,173,-56,11,-1,-1
25,45,3,185,-43,18,-1,-1
28,66,7,175,-48,18,-1,-1
20,80,4,182,-48,22,-1,-1
18,69,4,174,-45,20,-1,-1
15,50,-4,176,-51,21,-1,-1
11,41,-6,183,-40,24,-1,-1
13,14,-5,179,-25,21,-1,-1
13,-2,-8,184,-28,25,-1,-1
20,-31,-5,185,-18,28,-1,-1
17,-53,-7,184,-18,18,-1,-1
17,-73,-4,174,-33,28,-1,-1
26,-97,-8,180,-33,23,-1,-1
20,-111,-7,179,-39,20,-1,-1
18,-122,-11,182,-42,21,-1,-1
17,-126,-1,168,-40,24,-1,-1
20,-116,2,179,-31,18,-1,-1
26,-127,-1,176,-40,16,-1,-1
21,-129,-3,176,-41,19,-1,-1
23,-143,-7,175,-42,16,-1,-1
17,-143,-5,166,-46,13,-1,-1
22,-138,-3,179,-42,18,-1,-1
20,-127,0,169,-41,23,-1,-1
25,-124,-4,181,-40,14,-1,-1
25,-127,-5,180,-43,19,-1,-1
21,-128,-7,170,-41,8,-1,-1
19,-135,-6,185,-42,16,-1,-1
19,-133,-7,170,-41,12,-1,-1
19,-122,-3,185,-32,7,-1,-1
26,-119,-5,171,-30,10,-1,0
21,-112,-8,186,-37,18,-1,-1
20,-110,-1,170,-38,18,-1,-1
28,-119,-6,174,-39,18,-1,-1
22,-112,0,167,-34,19,-1,-1
21,-106,-5,167,-40,21,-1,-1
27,-113,-3,176,-39,23,-1,-1
19,-103,-6,175,-37,16,-1,-1
21,-101,-2,177,-33,19,0,-1
28,-108,-5,170,-46,26,-1,-1
22,-94,-6,172,-26,14,-1,-1
18,-99,-11,171,-45,21,-1,-1
17,-99,-13,176,-41,18,-1,-1
17,-85,-6,167,-39,20,-1,-1
18,-84,1,178,-37,25,-1,-1
18,-80,-11,175,-43,21,-1,-1
19,-76,-6,175,-46,23,-1,-1
19,-78,-11,172,-44,26,-1,-1
16,-72,-7,171,-41,21,-1,-1
25,-62,-5,171,-40,22,-1,-1
22,-72,-1,182,-52,20,-1,-1
19,-75,-4,176,-41,23,-1,-1
21,-63,-1,171,-34,29,-1,-1
26,-62,2,178,-39,22,-1,-1
21,-62,-3,179,-39,23,-1,-1
23,-74,-1,171,-38,20,-1,-1
19,-82,-10,175,-47,19,-1,-1
25,-72,-2,181,-34,13,-1,-1
19,-71,-4,169,-46,23,-1,-1
21,-69,-1,186,-41,18,-1,-1
23,-66,1,178,-31,22,-1,-1
30,-61,-1,179,-38,11,-1,-1
18,-51,0,174,-35,13,-1,-1
21,-55,-1,179,-37,17,-1,-1
21,-57,-3,181,-39,13,-1,-1
19,-62,-4,171,-35,16,-1,-1
21,-64,2,184,-34,19,-1,-1
22,-55,4,180,-32,21,-1,-1
30,-50,10,177,-35,20,-1,-1
21,-51,3,180,-41,14,-1,-1
18,-65,-3,175,-45,13,-1,-1
22,-52,-1,182,-39,15,-1,0
17,-55,9,174,-35,19,-1,-1
26,-53,8,178,-34,22,-1,-1
20,-51,5,188,-31,14,-1,-1
23,-57,2,172,-36,18,-1,-1
16,-66,-9,177,-48,10,-1,-1
22,-70,-4,178,-36,18,-1,-1
22,-66,-1,176,-36,18,-1,-1
21,-57,1,178,-42,18,-1,-1
24,-59,0,184,-43,16,-1,-1
25,-70,-4,179,-40,12,-1,-1
17,-66,-10,167,-46,10,-1,-1
21,-63,-3,179,-46,14,-1,-1
19,-59,1,172,-36,20,-1,-1
24,-56,1,191,-35,16,-1,-1
24,-65,2,173,-35,8,-1,-1
21,-68,-6,176,-52,17,-1,-1
19,-71,-4,168,-42,13,-1,-1
23,-67,-9,176,-41,20,-1,-1
17,-70,-5,185,-40,9,-1,-1
20,-76,-1,169,-30,19,-1,-1
22,-85,3,180,-42,12,-1,-1
20,-89,-9,173,-37,17,-1,-1
16,-91,-5,188,-44,23,-1,-1
18,-82,-1,169,-33,26,-1,-1
27,-76,-3,177,-35,22,-1,-1
16,-84,-1,181,-34,21,-1,-1
23,-83,-4,171,-41,28,-1,-1
19,-80,-3,179,-41,19,-1,-1
20,-75,-2,181,-31,21,-1,-1
20,-71,-5,167,-47,21,-1,-1
23,-71,-6,172,-42,10,-1,-1
24,-81,-5,177,-39,16,-1,-1
12,-79,-11,166,-40,10,-1,-1
21,-73,2,172,-39,10,-1,-1
20,-65,-7,185,-50,10,-1,-1
13,-74,-10,162,-39,12,-1,-1
18,-83,-15,168,-48,12,-1,-1
19,-86,-9,177,-45,16,-1,-1
18,-77,-6,177,-44,13,-1,-1
16,-76,1,177,-38,15,-1,-1
23,-81,1,180,-32,13,-1,-1
16,-80,-8,171,-51,12,-1,-1
15,-98,-10,174,-43,15,-1,-1
21,-98,-4,167,-38,16,-1,-1
17,-91,4,184,-39,16,-1,-1
22,-81,4,172,-28,23,-1,-1
27,-85,6,170,-43,22,-1,-1
21,-89,-4,180,-40,17,-1,-1
21,-93,0,166,-43,23,-1,-1
18,-82,2,180,-41,25,-1,-1
26,-82,10,172,-30,21,0,-1
23,-82,12,182,-33,26,-1,-1
24,-77,5,192,-36,21,-1,-1
23,-81,3,171,-47,19,-1,-1
18,-86,-2,183,-31,15,-1,-1
27,-86,2,175,-41,20,-1,-1
27,-81,-2,173,-32,15,-1,-1
16,-82,7,170,-37,13,-1,-1
25,-92,0,175,-42,14,-1,-1
18,-89,-7,178,-43,15,-1,-1
16,-92,-8,166,-45,11,-1,-1
19,-94,-7,173,-49,6,-1,-1
19,-101,-6,166,-41,17,-1,-1
23,-100,-3,177,-34,11,-1,-1
20,-84,-1,168,-35,13,-1,-1
23,-84,-7,172,-37,17,-1,-1
14,-95,-6,176,-37,13,-1,-1
17,-100,-10,178,-46,16,-1,-1
20,-100,-5,176,-32,16,-1,-1
25,-86,2,172,-38,22,-1,-1
21,-78,4,191,-38,16,-1,-1
26,-78,0,167,-34,16,-1,-1
24,-95,-2,180,-40,14,-1,-1
20,-101,-1,177,-41,11,-1,-1
18,-102,-8,177,-46,14,-1,0
22,-95,-1,172,-29,12,-1,-1
21,-90,4,185,-33,22,-1,-1
23,-91,10,182,-28,20,-1,-1
21,-99,-2,173,-33,13,-1,-1
21,-109,-7,164,-50,13,-1,-1
21,-117,-20,180,-50,14,-1,-1
16,-118,-6,165,-43,17,-1,-1
21,-105,-7,184,-36,22,-1,-1
20,-108,2,176,-37,19,-1,-1
23,-108,-6,180,-38,21,-1,-1
22,-96,-4,176,-44,18,-1,-1
21,-97,-9,182,-44,19,-1,-1
22,-97,-7,175,-41,17,-1,-1
20,-79,4,181,-41,19,-1,-1
27,-64,-3,181,-30,24,-1,-1
25,-65,3,188,-38,24,-1,-1
26,-60,-2,172,-43,12,-1,-1
16,-72,-13,177,-36,12,-1,-1
17,-71,-4,171,-48,6,-1,-1
21,-72,-1,181,-30,10,-1,-1
24,-62,6,176,-30,20,-1,-1
23,-46,6,178,-41,18,-1,-1
24,-61,5,178,-27,21,-1,-1
21,-63,-3,177,-51,14,-1,-1
23,-71,-7,167,-43,11,-1,-1
19,-76,-2,174,-43,18,-1,-1
22,-72,4,184,-42,14,-1,-1
23,-64,6,175,-41,14,-1,-1
17,-55,0,178,-33,12,-1,-1
22,-55,-2,176,-47,15,-1,-1
24,-63,2,181,-34,12,-1,-1
23,-72,-3,172,-48,16,-1,-1
17,-64,2,180,-35,16,-1,-1
26,-57,1,163,-29,15,-1,-1
26,-63,6,188,-27,22,-1,-1
24,-57,8,177,-41,17,-1,-1
27,-59,5,181,-29,22,-1,-1
18,-47,-1,182,-39,17,-1,-1
20,-54,-9,175,-43,19,-1,-1
23,-57,0,176,-40,22,-1,-1
24,-50,-4,177,-35,15,-1,-1
16,-54,-2,175,-32,20,-1,-1
20,-64,-4,191,-34,19,-1,-1
21,-60,-9,166,-42,17,-1,-1
21,-62,-13,175,-40,10,-1,-1
19,-62,-9,173,-46,10,-1,-1
18,-70,-11,180,-38,13,-1,-1
24,-65,-8,163,-39,17,-1,-1
19,-46,1,180,-40,20,-1,-1
19,-65,-3,176,-34,11,-1,-1
21,-65,-5,167,-45,10,-1,-1
18,-59,-6,180,-37,10,-1,-1
17,-68,0,180,-40,16,-1,-1
23,-61,0,177,-50,12,-1,-1
22,-62,4,177,-30,15,-1,-1
20,-65,-4,181,-46,16,-1,-1
21,-68,3,179,-40,16,-1,-1
21,-67,-3,184,-41,13,-1,-1
20,-65,-2,175,-42,16,-1,-1
16,-61,-5,167,-53,15,-1,-1
20,-62,-8,175,-42,9,-1,-1
20,-74,-8,171,-44,18,-1,-1
22,-67,-4,180,-43,18,-1,-1
20,-57,-2,171,-38,14,-1,-1
21,-73,-3,176,-46,11,-1,-1
18,-71,-8,178,-38,15,-1,-1
17,-70,-4,172,-49,13,-1,-1
22,-80,-5,176,-52,13,-1,-1
18,-65,-5,172,-38,15,-1,-1
14,-56,5,180,-42,12,-1,-1
24,-61,0,172,-39,20,-1,-1
17,-56,-3,181,-42,24,-1,-1
24,-56,-4,171,-39,12,-1,-1
20,-54,-5,186,-42,22,-1,-1
20,-67,-5,168,-42,16,-1,-1
24,-61,0,186,-40,19,-1,0
27,-61,-5,173,-39,11,-1,-1
19,-60,-1,186,-37,15,-1,-1
16,-61,-2,164,-42,15,-1,-1
21,-56,-4,180,-41,13,-1,-1
26,-50,2,173,-39,15,-1,-1
15,-56,-3,169,-40,12,-1,-1
26,-58,2,173,-47,12,-1,-1
19,-64,-6,178,-30,17,-1,0
23,-60,-6,173,-43,12,-1,-1
21,-58,-1,172,-43,12,-1,-1
22,-56,4,179,-40,16,-1,-1
10,-57,5,175,-42,13,-1,-1
22,-63,-5,178,-50,10,-1,-1
17,-68,2,174,-37,20,-1,-1
20,-61,2,173,-40,20,-1,-1
21,-54,0,187,-37,20,-1,-1
22,-57,-1,178,-26,11,-1,-1
24,-45,0,183,-33,18,-1,-1
24,-66,2,174,-31,20,-1,-1
20,-60,1,182,-29,14,-1,-1
21,-64,-1,171,-29,25,-1,-1
17,-70,2,179,-32,15,-1,-1
27,-51,2,180,-39,21,-1,-1
20,-54,-1,170,-39,14,-1,-1
17,-58,2,177,-37,18,-1,-1
23,-45,5,188,-34,21,-1,-1
18,-52,-1,179,-37,20,-1,-1
24,-70,-5,169,-45,21,-1,-1
19,-67,0,166,-39,16,-1,-1
21,-63,-6,182,-40,18,-1,-1
21,-68,0,178,-34,16,-1,-1
26,-63,-2,169,-55,12,-1,-1
16,-60,-9,174,-38,10,-1,-1
20,-63,-4,176,-42,12,-1,-1
14,-70,-6,174,-39,17,-1,-1
22,-63,-6,176,-42,11,-1,-1
22,-56,0,175,-41,23,-1,-1
25,-60,3,174,-37,18,0,-1
16,-63,-1,179,-37,16,-1,-1
27,-59,-2,168,-43,11,-1,-1
22,-70,-4,179,-38,17,-1,-1
23,-64,-2,181,-43,18,-1,-1
20,-53,0,182,-39,17,-1,-1
23,-63,4,171,-38,14,-1,-1
19,-56,3,180,-39,24,-1,-1
24,-64,-3,176,-50,11,-1,-1
18,-71,-3,179,-39,16,-1,-1
21,-53,-5,172,-42,13,-1,-1
19,-58,7,179,-37,15,-1,-1
24,-49,0,174,-26,11,-1,-1
25,-49,7,176,-35,19,-1,-1
19,-66,-2,174,-38,12,-1,-1
19,-55,-7,167,-45,16,-1,-1
18,-57,-3,173,-45,15,-1,-1
14,-69,-3,180,-34,14,-1,-1
25,-55,0,161,-42,18,-1,-1
18,-70,-8,192,-40,15,-1,-1
23,-66,-5,163,-46,15,-1,-1
14,-52,-7,168,-43,15,-1,-1
16,-57,0,173,-36,13,-1,-1
17,-50,-7,185,-41,14,-1,-1
17,-50,-3,167,-40,12,-1,-1
15,-62,-11,166,-52,14,-1,-1
23,-57,-1,182,-38,15,-1,-1
19,-55,2,172,-36,20,-1,-1
21,-51,5,175,-39,19,-1,0
24,-49,-2,179,-47,23,-1,-1
12,-54,-5,170,-40,12,-1,-1
20,-52,-4,166,-42,22,-1,-1
26,-40,7,178,-29,22,-1,-1
25,-37,6,181,-35,14,-1,-1
19,-47,-7,163,-40,17,-1,-1
19,-63,-9,172,-45,10,-1,-1
14,-62,0,167,-43,14,-1,-1
18,-58,-3,179,-40,13,-1,-1
23,-54,5,162,-31,14,-1,-1
21,-53,5,186,-37,18,-1,-1
18,-63,-11,174,-41,9,-1,-1
16,-70,-8,168,-44,9,-1,-1
21,-63,-9,173,-50,7,-1,-1
20,-66,2,174,-31,14,-1,-1
18,-64,3,179,-43,17,-1,-1
22,-66,-3,173,-39,16,-1,-1
19,-62,-9,172,-35,17,-1,-1
22,-65,-1,174,-36,21,-1,-1
19,-61,1,174,-33,22,0,-1
28,-65,-3,179,-35,17,-1,-1
18,-73,-5,173,-42,21,-1,-1
20,-84,-1,180,-41,19,-1,-1
26,-71,5,173,-34,21,-1,-1
24,-60,0,179,-23,23,-1,-1
31,-71,4,177,-40,18,-1,-1
20,-76,-1,179,-39,16,-1,-1
18,-78,-9,171,-49,18,-1,-1
23,-79,0,173,-34,20,-1,-1
27,-79,0,181,-34,22,-1,-1
29,-68,4,179,-33,17,-1,-1
24,-69,0,163,-31,14,-1,-1
21,-74,-3,175,-40,12,-1,-1
20,-75,-6,161,-45,16,-1,-1
21,-65,0,173,-46,19,-1,-1
22,-65,-2,179,-37,22,-1,-1
20,-66,2,172,-43,15,-1,-1
28,-59,8,175,-27,21,-1,-1
19,-59,4,181,-40,21,-1,-1
24,-61,0,167,-34,23,-1,-1
20,-64,-2,167,-38,21,-1,-1
25,-64,-1,180,-38,23,-1,-1
23,-61,-1,159,-39,16,-1,-1
22,-68,5,193,-32,20,-1,-1
23,-61,2,172,-39,18,-1,-1
23,-54,3,177,-35,21,-1,-1
20,-66,-4,174,-43,19,-1,-1
26,-64,0,164,-34,21,-1,-1
25,-61,1,182,-43,18,-1,-1
24,-56,6,174,-38,17,-1,-1
23,-51,8,184,-34,22,-1,-1
23,-67,1,175,-41,17,-1,-1
23,-73,0,185,-33,12,-1,-1
20,-62,0,163,-44,22,-1,-1
18,-77,-2,165,-44,12,-1,-1
21,-71,0,181,-37,20,-1,-1
24,-66,7,187,-38,12,-1,-1
28,-68,1,171,-45,17,-1,-1
16,-68,-7,168,-36,6,-1,-1
14,-67,-4,170,-41,15,-1,-1
23,-69,-11,170,-48,17,-1,-1
23,-73,-1,180,-33,19,-1,-1
21,-65,-3,172,-40,16,-1,-1
18,-65,-3,168,-47,18,-1,-1
20,-65,-11,167,-49,17,-1,-1
17,-72,-6,171,-48,20,-1,-1
23,-69,-5,173,-32,17,-1,-1
22,-62,3,173,-41,21,-1,-1
28,-65,-1,172,-34,16,-1,-1
20,-84,-5,177,-40,19,-1,-1
16,-79,-1,168,-40,25,-1,-1
25,-58,3,181,-35,16,-1,-1
20,-71,4,166,-44,21,-1,-1
19,-64,2,167,-35,12,-1,-1
20,-67,1,182,-40,21,-1,-1
20,-70,-1,172,-38,23,-1,-1
24,-76,5,175,-35,18,-1,-1
19,-68,3,169,-50,18,-1,-1
22,-66,1,180,-32,17,-1,-1
29,-79,-1,175,-39,17,-1,-1
20,-85,-5,165,-33,19,-1,-1
22,-71,-6,164,-49,22,-1,-1
22,-66,-4,174,-35,21,-1,-1
23,-67,3,182,-33,21,-1,-1
26,-69,-2,175,-48,21,-1,-1
23,-66,0,182,-43,17,-1,-1
20,-70,-9,162,-40,17,-1,-1
20,-63,-2,168,-39,14,-1,-1
18,-74,-6,174,-43,16,-1,-1
23,-72,1,171,-35,18,-1,-1
24,-72,6,183,-38,15,-1,-1
17,-67,-1,169,-40,20,-1,-1
20,-59,1,171,-38,19,0,-1
26,-62,3,172,-42,18,-1,-1
19,-73,-2,181,-42,16,-1,-1
23,-82,-8,158,-41,23,-1,-1
22,-78,-2,174,-38,22,-1,-1
25,-75,0,168,-35,25,-1,-1
30,-77,6,177,-36,18,-1,-1
23,-81,-3,184,-40,18,-1,-1
23,-77,-3,173,-40,16,-1,0
23,-81,3,176,-29,20,-1,-1
28,-73,0,171,-37,24,-1,-1
23,-69,4,177,-37,20,-1,-1
26,-66,-2,179,-33,19,-1,-1
24,-68,3,170,-31,21,-1,-1
19,-69,-4,178,-40,16,-1,-1
21,-65,-7,159,-48,15,-1,-1
11,-75,-5,169,-44,10,-1,-1
22,-74,-7,171,-36,21,-1,-1
19,-70,2,168,-40,21,-1,-1
23,-71,2,178,-41,18,-1,-1
29,-74,-1,179,-46,22,-1,0
13,-70,-5,183,-42,20,-1,-1
21,-71,-5,163,-38,18,-1,-1
25,-57,1,188,-45,19,-1,-1
27,-60,2,181,-22,29,-1,-1
26,-48,5,183,-38,29,-1,-1
24,-63,3,172,-35,17,-1,-1
31,-66,-3,176,-40,19,-1,-1
20,-66,-2,181,-31,29,-1,-1
30,-64,2,185,-33,25,-1,-1
29,-70,6,171,-37,29,-1,-1
27,-66,4,184,-27,26,-1,-1
31,-73,2,176,-39,18,-1,-1
25,-73,3,187,-38,25,-1,-1
21,-69,-6,177,-43,15,-1,-1
26,-79,-3,171,-40,19,-1,-1
18,-73,-4,179,-33,22,-1,-1
25,-64,8,169,-32,21,-1,-1
22,-65,4,182,-25,20,-1,-1
26,-62,2,175,-41,20,-1,-1
22,-70,2,168,-44,22,-1,-1
22,-76,-7,169,-46,20,-1,-1
21,-75,3,185,-37,20,-1,-1
22,-68,5,180,-30,27,-1,-1
30,-66,10,185,-41,23,-1,-1
24,-78,2,180,-43,23,-1,-1
25,-87,-8,181,-46,19,-1,-1
19,-81,-9,167,-39,24,-1,-1
18,-83,-7,178,-39,14,-1,-1
20,-73,1,173,-36,24,-1,-1
27,-74,5,183,-33,26,-1,-1
23,-75,1,171,-43,22,-1,-1
23,-79,-4,179,-44,22,-1,-1
21,-84,-4,168,-39,20,-1,-1
18,-88,-2,172,-40,12,-1,-1
19,-77,-1,174,-45,18,-1,-1
17,-77,1,180,-41,19,-1,-1
21,-75,3,172,-35,24,-1,-1
20,-67,6,179,-28,27,-1,-1
22,-71,0,176,-35,15,-1,-1
21,-77,-1,179,-39,16,-1,-1
17,-77,-6,162,-43,21,-1,-1
23,-71,-2,178,-42,20,-1,-1
22,-75,6,173,-33,22,-1,-1
24,-75,5,185,-29,25,-1,-1
29,-73,4,175,-27,24,-1,-1
29,-77,-7,171,-43,19,-1,-1
21,-78,-9,177,-52,18,0,-1
23,-63,-1,164,-40,19,-1,-1
19,-56,-4,183,-35,20,-1,-1
29,-49,6,176,-29,23,-1,-1
23,-50,4,175,-39,18,-1,-1
28,-62,2,177,-41,22,-1,-1
20,-68,-5,175,-39,23,-1,-1
26,-65,-3,160,-41,20,-1,-1
21,-57,1,185,-43,23,-1,-1
16,-54,5,170,-37,16,-1,-1
26,-63,0,189,-37,25,-1,-1
20,-70,-1,180,-39,27,-1,-1
14,-77,-7,179,-40,23,-1,-1
25,-79,-6,167,-35,19,-1,-1
24,-75,-8,181,-34,24,-1,-1
18,-62,0,177,-43,11,-1,-1
27,-60,6,182,-24,22,0,-1
27,-63,8,196,-32,30,-1,-1
25,-61,3,167,-33,23,-1,-1
33,-64,0,173,-45,15,-1,-1
10,-74,-5,188,-46,19,-1,-1
25,-66,5,164,-30,18,-1,-1
27,-58,3,182,-44,20,-1,-1
24,-60,10,181,-28,22,-1,-1
25,-62,9,164,-31,27,-1,-1
26,-64,-3,179,-39,30,-1,-1
25,-73,-2,173,-46,20,-1,-1
24,-85,-10,176,-41,19,-1,-1
17,-80,4,178,-37,21,-1,-1
19,-65,2,178,-43,19,-1,-1
26,-70,1,172,-37,23,-1,-1
27,-74,3,182,-34,23,-1,-1
21,-75,-4,171,-48,19,-1,-1
18,-88,-6,165,-36,17,-1,-1
20,-89,-5,188,-50,24,-1,-1
19,-84,2,172,-31,23,-1,-1
22,-78,-2,171,-38,20,-1,-1
22,-81,-1,176,-39,26,-1,-1
19,-79,-6,179,-40,18,-1,-1
24,-77,0,179,-47,24,-1,-1
19,-72,-9,172,-39,25,-1,-1
24,-76,-3,184,-40,22,-1,-1
25,-75,0,175,-40,24,-1,0
23,-74,3,181,-32,19,-1,-1
31,-74,1,176,-45,22,-1,-1
21,-71,-2,181,-42,8,-1,-1
21,-77,-2,181,-37,18,-1,-1
23,-73,-4,172,-38,16,-1,-1
28,-67,4,179,-33,23,-1,-1
25,-62,2,176,-34,16,-1,-1
27,-68,6,182,-27,20,-1,-1
23,-73,4,158,-34,24,-1,-1
25,-66,2,185,-37,23,-1,-1
23,-75,1,169,-34,16,-1,-1
16,-78,-3,176,-39,19,-1,-1
25,-71,2,179,-41,23,-1,-1
23,-61,1,171,-22,25,-1,-1
21,-58,8,185,-37,24,-1,-1
27,-61,6,172,-31,19,-1,-1
24,-63,5,170,-37,25,-1,-1
19,-72,-6,172,-51,12,-1,-1
20,-76,-8,175,-43,19,-1,-1
18,-59,3,184,-37,25,-1,-1
28,-54,6,182,-29,27,-1,-1
29,-51,9,182,-35,26,-1,-1
27,-59,-3,172,-41,20,-1,-1
20,-63,-5,175,-38,27,-1,-1
23,-62,1,184,-45,24,-1,-1
28,-59,2,170,-28,22,-1,-1
25,-55,8,178,-35,27,-1,-1
31,-53,8,176,-32,20,-1,-1
25,-61,2,174,-42,18,-1,-1
19,-71,-2,171,-41,17,-1,-1
31,-65,-2,183,-40,17,-1,-1
26,-71,4,175,-36,26,-1,-1
26,-65,10,178,-27,27,-1,-1
24,-58,0,181,-33,27,-1,-1
25,-64,8,173,-31,22,-1,-1
23,-79,2,178,-37,24,-1,-1
24,-79,-1,182,-34,25,-1,-1
22,-66,-3,173,-35,25,-1,-1
27,-72,2,178,-41,15,-1,-1
25,-55,1,183,-30,22,-1,-1
28,-54,9,186,-24,32,-1,-1
27,-70,5,173,-40,22,-1,-1
32,-65,-7,169,-46,13,-1,-1
22,-71,-6,182,-43,21,-1,-1
21,-75,-5,177,-37,20,-1,-1
25,-72,6,180,-34,24,-1,-1
33,-64,5,191,-27,30,-1,-1
25,-69,5,178,-36,20,-1,-1
19,-79,-5,170,-41,18,-1,-1
19,-78,-17,174,-46,8,-1,-1
17,-76,-6,171,-32,19,-1,-1
24,-69,3,178,-38,19,-1,-1
21,-68,3,167,-41,24,-1,-1
22,-72,-1,181,-36,24,-1,-1
23,-70,-1,171,-49,20,-1,-1
20,-71,-13,171,-37,18,-1,-1
26,-69,0,169,-45,21,-1,-1
19,-68,5,178,-31,28,-1,-1
31,-68,0,178,-36,22,-1,-1
24,-68,0,179,-33,25,-1,-1
27,-63,3,174,-36,32,-1,-1
25,-70,2,184,-45,19,-1,-1
24,-66,1,171,-41,22,-1,-1
28,-63,-1,186,-28,22,-1,-1
24,-75,5,181,-33,25,-1,-1
23,-68,10,180,-33,26,-1,-1
28,-62,9,184,-26,29,-1,0
25,-68,4,186,-34,24,-1,-1
20,-66,-4,174,-45,23,-1,-1
22,-69,-1,164,-32,31,-1,-1
20,-68,-2,183,-42,26,-1,-1
25,-70,3,171,-33,20,-1,-1
26,-59,9,179,-27,27,-1,-1
21,-66,5,175,-42,29,-1,-1
25,-65,2,173,-32,14,-1,0
23,-63,-5,174,-38,20,-1,-1
22,-68,0,180,-47,7,-1,-1
25,-60,-3,173,-31,21,-1,-1
21,-54,7,174,-31,18,-1,-1
31,-63,7,181,-30,23,-1,-1
25,-55,-4,169,-37,22,-1,-1
21,-61,-7,171,-43,17,-1,-1
26,-64,-4,178,-39,22,-1,-1
23,-67,-1,175,-38,19,-1,-1
22,-63,3,179,-37,21,-1,-1
23,-53,4,181,-30,19,-1,0
22,-68,5,169,-37,23,-1,-1
22,-66,-6,183,-43,19,-1,-1
23,-77,-1,168,-32,23,-1,-1
22,-62,5,181,-44,18,-1,-1
23,-64,5,177,-28,20,-1,-1
28,-56,1,177,-37,23,-1,-1
24,-61,1,181,-42,20,-1,-1
21,-69,0,168,-32,19,-1,-1
22,-65,-1,183,-38,19,-1,-1
18,-67,-3,163,-35,21,-1,-1
19,-75,-2,181,-39,26,-1,-1
24,-66,-2,178,-34,27,-1,-1
19,-62,-6,171,-32,20,-1,-1
21,-66,1,170,-41,23,-1,-1
22,-66,4,186,-26,29,-1,-1
28,-63,4,173,-30,27,-1,-1
26,-67,3,184,-27,25,-1,-1
29,-66,8,164,-34,25,-1,-1
19,-70,2,183,-31,25,-1,-1
25,-79,-1,180,-41,27,-1,-1
31,-74,6,169,-30,18,-1,-1
25,-67,12,178,-23,32,-1,-1
26,-65,12,175,-29,22,-1,-1
30,-63,8,189,-33,21,-1,-1
26,-75,7,174,-33,23,-1,-1
25,-79,0,172,-36,20,-1,-1
21,-72,-5,185,-45,23,-1,-1
27,-74,2,178,-29,16,-1,-1
27,-70,1,178,-42,20,-1,-1
24,-63,4,177,-32,23,-1,-1
25,-61,0,188,-33,17,-1,-1
24,-58,1,173,-38,25,-1,-1
21,-74,-3,180,-37,26,-1,-1
30,-65,-3,171,-37,29,-1,-1
21,-65,4,180,-31,27,-1,-1
28,-65,2,174,-43,20,0,-1
25,-64,5,188,-25,26,-1,-1
27,-59,1,176,-32,26,-1,-1
27,-64,1,173,-42,20,-1,-1
19,-62,-3,178,-37,18,-1,-1
23,-55,-4,173,-36,21,-1,-1
25,-62,1,175,-32,26,-1,-1
25,-61,4,174,-36,24,-1,-1
23,-58,1,171,-34,19,-1,-1
23,-70,4,186,-39,22,-1,-1
21,-59,0,177,-35,18,-1,-1
27,-76,4,175,-35,25,-1,-1
20,-66,1,172,-41,22,-1,-1
27,-66,-1,173,-26,25,-1,-1
28,-61,2,185,-28,18,-1,-1
17,-61,2,172,-27,31,-1,-1
27,-65,4,176,-39,21,-1,-1
23,-68,0,182,-39,17,-1,-1
24,-74,1,183,-35,18,-1,-1
14,-69,-7,166,-40,21,-1,-1
23,-75,2,176,-38,12,-1,-1
18,-71,4,192,-43,21,-1,-1
30,-71,1,169,-26,14,-1,-1
20,-71,-1,183,-44,17,-1,-1
22,-77,-6,173,-40,18,-1,-1
21,-75,2,172,-35,19,-1,-1
26,-65,2,176,-35,22,-1,-1
23,-70,2,182,-34,26,-1,-1
22,-73,2,175,-41,12,-1,-1
19,-71,-1,170,-42,20,-1,-1
24,-82,-8,173,-39,26,-1,-1
20,-82,-1,171,-44,9,-1,-1
18,-81,1,169,-34,21,-1,-1
23,-78,-1,168,-39,19,-1,-1
16,-74,-1,182,-35,23,-1,-1
28,-69,-1,173,-43,18,-1,-1
17,-66,2,162,-39,17,-1,-1
27,-72,-2,182,-38,21,-1,-1
17,-75,-1,174,-43,22,-1,-1
23,-69,-5,170,-36,20,-1,-1
21,-68,2,178,-41,20,-1,-1
23,-66,3,182,-33,21,-1,-1
22,-74,1,166,-31,22,-1,-1
24,-75,2,165,-39,18,-1,-1
24,-83,3,190,-38,23,-1,-1
20,-73,-5,177,-54,16,-1,-1
27,-75,-1,173,-31,22,-1,-1
19,-62,1,183,-41,20,-1,-1
24,-65,-3,178,-40,19,-1,-1
24,-64,5,179,-38,21,-1,-1
23,-62,-10,186,-35,20,-1,-1
20,-65,-3,172,-40,13,-1,0
17,-74,-7,181,-44,14,-1,-1
17,-72,-7,166,-40,17,-1,-1
19,-81,-2,180,-35,20,-1,-1
24,-72,4,175,-33,20,-1,-1
23,-70,7,178,-38,21,-1,-1
18,-74,-8,168,-40,17,-1,-1
19,-73,-1,170,-44,19,-1,-1
18,-66,-6,174,-38,21,-1,-1
21,-69,-5,172,-33,18,-1,-1
15,-69,3,176,-38,20,-1,-1
27,-65,10,177,-30,22,-1,-1
30,-64,3,176,-26,24,-1,-1
21,-67,7,171,-43,13,-1,0
22,-72,-9,167,-43,17,-1,-1
19,-71,-3,185,-45,22,-1,-1
24,-61,-2,162,-41,17,-1,-1
30,-45,8,183,-25,20,-1,-1
25,-52,1,183,-33,27,-1,-1
24,-58,3,172,-30,21,-1,-1
23,-61,-3,181,-40,21,-1,-1
22,-61,-2,171,-33,21,-1,0
29,-59,3,172,-37,22,-1,-1
28,-66,2,180,-30,22,-1,-1
23,-62,6,180,-35,18,-1,-1
25,-60,0,173,-25,22,-1,-1
25,-70,1,170,-38,13,-1,-1
18,-80,-4,175,-41,17,-1,-1
23,-76,-3,173,-37,22,-1,-1
22,-62,6,168,-43,15,-1,-1
21,-66,2,186,-36,20,-1,-1
25,-69,3,168,-33,20,-1,-1
25,-68,-3,172,-44,11,-1,-1
27,-69,-1,179,-33,20,-1,-1
20,-61,-3,180,-42,19,-1,-1
22,-57,2,171,-41,19,-1,-1
30,-66,4,183,-37,16,-1,-1
21,-56,7,185,-39,19,-1,-1
26,-66,4,174,-27,24,-1,-1
29,-70,5,178,-25,29,-1,-1
18,-66,3,179,-41,23,-1,-1
26,-77,0,173,-42,16,-1,-1
19,-77,6,178,-33,27,-1,-1
23,-70,1,172,-37,18,-1,-1
27,-79,-4,174,-34,24,-1,-1
22,-77,0,168,-39,21,-1,-1
24,-74,-11,162,-44,16,-1,-1
22,-83,3,175,-37,25,-1,-1
23,-79,0,174,-41,15,-1,-1
24,-78,1,180,-33,22,-1,-1
16,-84,-4,170,-51,23,-1,-1
28,-85,-4,164,-38,19,-1,-1
21,-68,-2,167,-33,26,-1,-1
22,-66,-3,176,-29,22,-1,-1
24,-66,-3,172,-35,21,-1,-1
23,-67,2,178,-34,28,-1,-1
25,-73,1,182,-30,24,-1,-1
20,-73,-1,167,-39,29,-1,-1
24,-64,-1,176,-30,19,-1,-1
24,-66,3,182,-44,18,-1,-1
20,-63,4,175,-32,19,-1,-1
26,-65,5,171,-35,17,-1,-1
26,-67,1,183,-37,13,-1,-1
21,-64,3,161,-30,15,-1,-1
21,-81,2,180,-44,26,-1,-1
25,-76,5,175,-38,17,-1,-1
22,-70,0,178,-31,21,-1,-1
21,-73,6,180,-34,22,-1,-1
24,-74,0,175,-34,17,-1,-1
24,-66,7,177,-37,22,-1,-1
26,-63,3,177,-31,17,-1,-1
23,-71,3,174,-43,18,-1,-1
20,-66,-2,170,-29,22,-1,-1
19,-64,1,170,-30,16,-1,-1
21,-72,0,183,-37,25,-1,-1
23,-71,0,177,-40,21,-1,-1
26,-72,-3,172,-37,25,-1,-1
19,-65,1,183,-29,18,-1,-1
20,-61,-1,179,-45,19,-1,-1
13,-63,-6,172,-32,30,-1,-1
26,-68,10,188,-32,21,-1,-1
23,-70,3,176,-40,25,-1,-1
26,-69,3,181,-28,24,-1,-1
30,-64,8,177,-25,26,-1,-1
22,-63,2,177,-34,20,-1,-1
26,-81,5,180,-37,17,-1,0
26,-63,-4,184,-36,18,-1,-1
27,-66,8,167,-25,17,-1,0
16,-75,3,179,-33,23,-1,-1
33,-60,7,182,-28,24,-1,-1
21,-54,4,177,-28,17,-1,-1
24,-68,1,180,-32,21,-1,-1
26,-71,-5,176,-41,21,-1,-1
22,-63,6,176,-28,28,-1,-1
26,-66,9,181,-37,21,-1,-1
31,-55,4,176,-29,23,-1,-1
19,-63,7,175,-41,24,-1,-1
20,-88,-5,174,-39,21,-1,-1
25,-75,-3,167,-39,17,-1,-1
15,-73,-4,173,-47,21,-1,-1
21,-68,4,164,-36,22,-1,-1
22,-67,0,184,-31,20,-1,-1
28,-72,-3,160,-36,18,-1,-1
14,-68,8,190,-43,19,-1,-1
26,-73,-4,178,-41,17,-1,-1
17,-76,-7,167,-41,16,-1,-1
20,-74,-7,182,-48,21,-1,-1
22,-70,0,176,-23,20,-1,-1
22,-59,6,178,-42,19,-1,-1
18,-65,5,177,-32,17,-1,-1
20,-68,-4,161,-45,21,-1,-1
20,-66,1,182,-41,12,-1,-1
14,-64,2,165,-35,21,-1,-1
25,-58,0,182,-28,21,-1,-1
24,-58,2,176,-39,20,-1,-1
19,-71,-4,176,-33,17,-1,-1
27,-62,1,180,-48,22,-1,-1
20,-57,-6,163,-36,19,-1,-1
19,-62,2,184,-36,17,-1,-1
21,-60,0,173,-38,26,-1,-1
26,-65,-2,178,-40,18,-1,-1
27,-62,3,176,-32,15,-1,-1
23,-55,-2,175,-43,17,-1,-1
26,-58,6,175,-33,28,-1,-1
19,-58,9,180,-35,18,-1,-1
26,-63,-2,185,-34,21,-1,-1
20,-66,0,178,-46,20,-1,-1
24,-76,0,182,-39,20,-1,-1
16,-64,-3,164,-36,23,-1,-1
26,-67,1,176,-38,19,-1,-1
21,-66,2,170,-30,23,-1,-1
18,-63,-2,176,-47,19,-1,-1
20,-68,-1,177,-47,20,-1,-1
21,-68,-3,177,-32,20,-1,-1
14,-68,-3,166,-46,15,-1,-1
21,-67,-1,171,-33,21,-1,-1
18,-62,3,175,-39,17,-1,-1
24,-61,6,178,-35,22,-1,-1
11,-77,-2,171,-38,13,-1,-1
29,-80,-3,178,-40,20,-1,-1
17,-78,-3,167,-41,20,-1,-1
17,-68,4,175,-35,17,-1,-1
22,-66,-4,179,-30,23,-1,-1
23,-66,5,175,-33,23,-1,-1
23,-65,5,188,-38,24,-1,-1
23,-75,-4,174,-42,22,-1,-1
25,-72,-11,181,-38,20,-1,-1
22,-71,4,169,-38,20,-1,-1
20,-74,0,194,-35,22,-1,-1
21,-68,-2,167,-32,20,-1,-1
20,-76,1,187,-32,16,-1,-1
18,-74,1,175,-34,23,-1,-1
23,-74,-4,179,-37,13,-1,-1
19,-69,-5,174,-36,19,-1,-1
24,-75,0,178,-37,19,-1,-1
16,-70,-3,170,-50,20,-1,-1
20,-79,-5,175,-35,24,-1,-1
25,-66,3,172,-37,22,-1,-1
25,-61,3,177,-44,27,-1,-1
19,-73,-5,178,-35,18,-1,-1
23,-76,-1,171,-50,23,-1,-1
21,-81,-6,182,-44,25,-1,-1
25,-73,-4,175,-45,20,-1,-1
25,-68,-4,178,-32,19,-1,-1
18,-67,3,170,-38,23,-1,-1
26,-71,-1,171,-41,22,-1,-1
24,-72,4,180,-30,19,-1,-1
20,-71,-1,179,-40,20,-1,-1
24,-69,3,163,-37,18,-1,0
23,-70,4,181,-28,23,-1,-1
24,-66,5,171,-33,19,-1,-1
24,-61,3,182,-39,22,-1,0
21,-70,0,179,-31,21,-1,-1
25,-70,4,171,-36,21,-1,-1
20,-65,5,176,-38,22,-1,-1
28,-61,9,178,-32,21,-1,-1
16,-61,3,167,-30,22,-1,-1
26,-78,-1,180,-36,16,-1,-1
27,-69,-3,166,-42,20,-1,-1
20,-65,0,177,-35,25,-1,-1
22,-68,2,174,-35,17,-1,-1
25,-70,1,164,-32,15,-1,-1
25,-64,-4,172,-39,17,-1,-1
21,-70,0,183,-30,26,-1,-1
27,-67,2,181,-37,17,-1,-1
23,-72,1,166,-30,23,-1,-1
21,-75,1,178,-43,18,-1,-1
26,-64,0,170,-33,23,-1,-1
19,-71,-3,177,-45,22,-1,-1
25,-70,2,172,-31,26,-1,-1
24,-61,3,170,-38,24,-1,-1
13,-72,-5,189,-40,17,-1,-1
23,-80,-8,166,-41,26,-1,-1
19,-73,-3,172,-30,25,-1,-1
29,-68,1,170,-27,26,-1,-1
21,-60,5,173,-38,15,-1,-1
24,-69,2,173,-38,26,-1,-1
18,-73,-5,174,-45,13,-1,-1
16,-66,-4,166,-49,19,-1,-1
20,-62,2,180,-34,22,-1,-1
23,-68,7,173,-40,24,-1,-1
26,-57,7,180,-29,17,-1,-1
23,-76,2,175,-44,21,-1,-1
20,-79,-8,165,-47,11,-1,-1
18,-85,-4,178,-33,18,-1,-1
17,-82,3,176,-39,16,-1,-1
29,-73,6,174,-33,17,-1,-1
20,-66,4,177,-34,20,-1,-1
23,-75,-2,177,-44,21,-1,-1
21,-88,-11,159,-43,14,-1,-1
14,-82,-10,170,-46,19,-1,-1
22,-69,-2,173,-33,13,-1,-1
23,-67,8,180,-35,27,-1,-1
27,-62,2,177,-19,17,-1,-1
23,-72,-1,167,-47,18,-1,-1
20,-77,-7,166,-39,12,-1,0
20,-70,-8,168,-44,18,-1,-1
18,-70,-3,175,-40,22,-1,-1
28,-64,6,164,-32,22,-1,-1
25,-71,4,190,-29,29,-1,-1
25,-79,5,171,-41,22,-1,-1
24,-74,4,178,-43,18,-1,-1
19,-75,-7,170,-33,25,-1,-1
15,-74,-7,161,-45,20,-1,-1
18,-76,-1,178,-44,19,-1,-1
20,-72,-3,178,-37,22,-1,-1
22,-66,5,173,-43,16,-1,-1
24,-62,4,175,-30,18,-1,-1
18,-60,-6,172,-39,13,-1,-1
20,-76,-7,172,-49,7,-1,-1
12,-82,-8,176,-47,15,-1,-1
21,-76,-2,168,-43,13,-1,-1
21,-67,2,170,-26,20,-1,-1
28,-66,10,184,-29,18,-1,-1
25,-64,10,176,-39,19,-1,-1
24,-69,-1,174,-34,10,-1,-1
19,-77,2,168,-48,20,-1,-1
28,-63,3,173,-28,12,-1,-1
26,-54,7,175,-33,19,-1,-1
24,-61,0,176,-27,11,-1,-1
27,-63,5,172,-40,25,-1,-1
28,-63,3,173,-45,11,-1,-1
16,-67,-6,176,-39,15,-1,-1
29,-65,3,168,-45,23,-1,-1
17,-64,2,172,-34,17,-1,-1
23,-67,1,170,-35,22,-1,-1
19,-66,3,183,-30,25,-1,-1
23,-72,5,167,-40,19,-1,-1
25,-60,7,177,-24,21,-1,-1
20,-57,3,181,-36,22,-1,-1
24,-70,-1,171,-42,24,-1,-1
15,-65,1,178,-41,18,-1,-1
22,-70,6,177,-31,27,-1,-1
22,-59,8,174,-24,23,-1,-1
25,-61,3,171,-39,24,0,-1
23,-72,-8,162,-46,24,-1,0
19,-74,-10,176,-45,22,-1,-1
20,-67,-2,172,-42,15,-1,-1
18,-65,2,172,-35,24,-1,-1
22,-60,1,172,-33,24,-1,-1
23,-63,2,169,-36,18,-1,-1
20,-68,0,178,-35,18,-1,-1
21,-80,-5,173,-46,21,-1,-1
16,-71,-6,173,-31,19,-1,-1
30,-62,7,168,-37,18,-1,-1
22,-55,8,185,-32,24,-1,-1
24,-67,4,172,-33,20,-1,-1
27,-67,-3,177,-40,25,-1,-1
22,-67,0,180,-29,15,-1,-1
26,-73,-7,176,-36,25,-1,-1
18,-68,-2,176,-41,23,-1,-1
20,-72,1,172,-40,22,-1,-1
23,-69,1,177,-32,26,-1,-1
25,-76,-2,165,-45,18,-1,-1
21,-73,-5,175,-38,21,-1,0
22,-69,-5,165,-42,16,-1,-1
20,-68,-5,176,-40,16,-1,-1
20,-61,-4,176,-31,21,-1,-1
21,-73,6,175,-39,26,-1,-1
24,-67,1,176,-34,14,-1,-1
28,-63,2,166,-34,22,-1,-1
23,-70,-7,173,-42,21,-1,-1
21,-75,-2,174,-50,11,-1,-1
22,-67,4,164,-34,14,-1,-1
18,-78,5,174,-33,18,-1,-1
23,-70,3,169,-35,25,-1,-1
22,-76,-1,169,-40,16,-1,-1
20,-83,-5,175,-43,16,-1,-1
20,-85,-9,172,-45,12,-1,-1
20,-67,-1,178,-39,16,-1,-1
20,-64,-2,179,-37,18,-1,-1
22,-71,-3,181,-41,26,-1,-1
24,-62,-1,181,-38,18,-1,-1
24,-77,-4,158,-40,19,-1,-1
20,-67,-2,169,-38,23,-1,0
25,-65,4,174,-27,15,-1,-1
19,-62,7,170,-34,16,-1,-1
24,-71,-3,175,-40,16,-1,-1
19,-70,1,165,-36,11,-1,-1
23,-80,-6,173,-56,17,-1,-1
22,-79,-2,172,-36,14,-1,-1
19,-68,1,174,-39,15,-1,-1
23,-76,2,172,-36,20,-1,-1
17,-67,-2,177,-42,19,-1,-1
23,-74,-4,160,-38,11,-1,-1
18,-70,-3,174,-43,11,-1,-1
19,-66,-1,178,-35,16,-1,-1
23,-70,10,180,-35,16,-1,-1
21,-70,3,176,-33,22,-1,-1
25,-70,1,160,-41,15,-1,-1
17,-77,0,183,-38,24,-1,-1
18,-69,-1,177,-38,23,-1,-1
21,-80,0,181,-31,29,-1,-1
21,-69,6,172,-40,27,-1,-1
27,-76,4,175,-37,18,-1,-1
22,-64,0,173,-35,16,-1,-1
16,-75,-4,167,-47,14,-1,-1
22,-84,-6,167,-37,17,-1,-1
20,-89,-6,173,-51,13,-1,-1
20,-71,-5,168,-36,17,-1,-1
18,-66,6,183,-37,13,-1,-1
23,-63,1,166,-34,22,-1,-1
26,-64,2,175,-36,17,-1,-1
21,-75,-5,175,-46,13,-1,-1
26,-77,-2,170,-35,13,-1,-1
18,-74,-4,171,-39,18,-1,-1
27,-74,1,172,-34,12,-1,-1
24,-75,-3,172,-39,19,-1,-1
19,-75,5,181,-38,19,-1,-1
28,-74,-2,172,-41,18,-1,-1
16,-78,-2,178,-40,16,-1,-1
20,-65,-5,164,-37,22,-1,-1
26,-69,0,173,-40,24,-1,-1
28,-68,1,180,-38,19,-1,-1
23,-66,-6,162,-35,13,-1,-1
23,-69,-3,182,-46,14,-1,-1
19,-72,-9,173,-41,17,-1,-1
18,-68,0,171,-38,15,-1,-1
19,-72,-3,181,-36,15,-1,-1
24,-70,3,179,-28,22,-1,-1
27,-56,-1,173,-42,21,-1,-1
22,-49,3,175,-33,21,-1,-1
24,-68,7,181,-34,19,-1,0
20,-57,-2,173,-29,16,-1,-1
30,-64,6,181,-31,18,-1,-1
21,-61,1,169,-22,21,-1,-1
23,-61,7,195,-39,25,-1,-1
24,-69,10,167,-29,18,-1,-1
25,-61,8,191,-23,24,-1,-1
30,-64,5,173,-32,25,-1,-1
23,-70,-6,174,-41,16,-1,-1
28,-67,2,178,-37,24,-1,-1
22,-69,-1,175,-42,12,-1,-1
21,-70,3,173,-37,20,-1,-1
24,-63,2,172,-43,20,-1,-1
28,-70,0,166,-38,19,-1,-1
16,-67,-9,163,-47,27,-1,-1
19,-64,-7,184,-43,19,-1,-1
22,-67,-5,167,-38,23,-1,-1
17,-66,0,178,-33,25,-1,-1
20,-75,0,174,-34,16,-1,-1
29,-67,6,168,-32,20,-1,-1
21,-74,0,179,-31,21,-1,-1
27,-65,-3,167,-45,18,-1,-1
21,-65,7,172,-35,25,-1,-1
30,-60,4,181,-29,24,-1,-1
28,-58,4,185,-27,24,-1,-1
30,-73,-1,174,-33,26,-1,-1
24,-69,-1,170,-30,22,-1,-1
28,-65,-8,174,-38,20,-1,-1
23,-72,0,181,-41,15,-1,-1
28,-66,-12,163,-44,18,-1,-1
23,-68,0,183,-37,24,-1,-1
26,-71,-2,181,-43,15,-1,-1
20,-71,-2,175,-44,17,-1,-1
18,-79,-1,172,-39,17,-1,-1
18,-73,-5,173,-40,20,-1,-1
16,-75,-1,172,-45,13,-1,-1
16,-74,-2,167,-38,18,-1,-1
25,-70,1,160,-43,17,-1,-1
18,-65,1,185,-32,17,-1,-1
20,-66,3,176,-40,12,-1,-1
24,-76,1,183,-38,17,-1,-1
21,-74,-3,174,-37,16,-1,-1
19,-72,-2,175,-40,20,-1,-1
23,-66,0,176,-27,31,-1,-1
26,-68,8,175,-36,21,-1,-1
20,-66,2,181,-36,22,-1,-1
24,-63,1,177,-35,24,-1,-1
29,-67,1,172,-44,22,-1,-1
25,-67,6,167,-29,25,-1,-1
16,-76,2,179,-48,22,-1,-1
24,-67,3,175,-33,22,-1,-1
25,-71,6,175,-31,23,-1,-1
24,-68,-1,188,-36,19,-1,-1
27,-76,0,175,-44,17,-1,-1
27,-78,-2,179,-38,18,-1,-1
24,-75,1,176,-34,14,-1,-1
20,-70,-1,178,-40,17,-1,-1
26,-75,-1,172,-32,23,-1,-1
24,-59,4,177,-32,15,-1,-1
23,-51,2,174,-40,18,-1,-1
21,-62,-4,164,-44,13,-1,-1
14,-74,-8,174,-44,21,-1,-1
20,-73,-5,177,-33,18,-1,-1
24,-61,-1,183,-28,16,-1,-1
23,-57,9,183,-38,21,0,-1
25,-58,2,179,-32,20,-1,-1
21,-72,9,182,-35,22,-1,-1
25,-67,-1,169,-44,20,0,-1
17,-63,0,182,-43,23,-1,-1
18,-69,1,167,-30,18,-1,-1
28,-61,8,181,-31,22,-1,-1
18,-51,9,182,-36,16,-1,-1
23,-63,-5,177,-40,19,-1,-1
23,-70,-2,175,-43,18,-1,-1
18,-66,-11,177,-47,16,-1,-1
19,-71,-2,170,-44,15,-1,-1
23,-73,-4,174,-38,13,-1,-1
18,-67,1,179,-48,14,-1,-1
17,-68,4,172,-27,18,-1,-1
24,-63,-3,183,-49,19,-1,-1
23,-70,2,177,-38,20,-1,-1
23,-73,0,165,-37,21,-1,-1
22,-71,2,181,-37,16,-1,-1
27,-69,7,173,-33,19,-1,-1
22,-67,-3,182,-42,17,-1,0
21,-68,0,180,-32,15,-1,-1
29,-62,1,175,-44,19,-1,-1
22,-64,-5,173,-44,24,-1,-1
29,-61,4,176,-36,22,-1,0
26,-72,1,172,-41,31,-1,-1
28,-64,2,182,-32,24,-1,-1
23,-62,-6,174,-42,20,-1,-1
19,-71,-9,173,-38,21,-1,-1
27,-76,-5,173,-41,16,-1,-1
17,-69,-4,175,-42,20,-1,-1
22,-67,3,174,-34,15,-1,-1
22,-69,0,170,-39,23,-1,-1
24,-63,3,173,-47,16,-1,-1
23,-59,-2,175,-35,18,-1,-1
26,-69,1,173,-44,11,-1,-1
22,-66,2,170,-33,14,-1,-1
13,-67,1,174,-48,19,-1,-1
20,-69,0,178,-32,14,-1,-1
20,-63,0,171,-40,18,-1,-1
18,-67,4,178,-39,17,-1,-1
22,-69,4,177,-35,21,-1,-1
23,-66,4,180,-36,16,-1,-1
19,-73,2,171,-35,15,-1,-1
23,-72,4,180,-31,22,-1,-1
22,-67,3,180,-31,20,-1,-1
22,-68,2,174,-32,20,-1,-1
21,-72,-1,179,-35,22,-1,-1
23,-74,-1,166,-39,22,-1,-1
23,-66,-2,185,-42,17,-1,-1
16,-73,-10,171,-37,17,-1,-1
19,-64,-3,175,-36,15,-1,-1
23,-69,-2,181,-44,22,-1,-1
17,-72,-6,175,-35,17,-1,-1
21,-68,-7,175,-40,16,-1,-1
17,-78,-8,165,-48,13,-1,-1
17,-70,-1,176,-36,18,-1,-1
14,-67,2,171,-33,17,-1,-1
22,-71,-4,180,-35,16,-1,-1
11,-63,0,167,-43,19,-1,-1
19,-60,-2,180,-34,17,-1,-1
22,-57,3,176,-36,11,-1,-1
18,-65,4,179,-34,23,-1,-1
24,-62,4,174,-36,30,-1,-1
19,-72,3,175,-39,17,-1,-1
24,-67,-3,187,-46,23,-1,-1
23,-59,9,187,-37,23,-1,-1
23,-57,0,174,-24,19,-1,-1
29,-67,3,178,-34,23,-1,-1
22,-56,4,177,-35,17,-1,-1
23,-64,-6,171,-41,21,-1,-1
22,-67,2,180,-38,20,-1,-1
20,-68,-4,179,-38,22,-1,-1
26,-74,-2,171,-37,25,-1,-1
28,-76,-2,169,-47,20,-1,-1
19,-70,-3,171,-44,21,-1,-1
22,-76,0,175,-38,17,-1,-1
23,-73,-3,172,-35,17,-1,-1
22,-74,1,169,-36,21,-1,-1
21,-73,-3,174,-45,17,-1,-1
19,-69,-5,173,-37,20,-1,-1
22,-72,-6,183,-38,23,-1,-1
24,-80,-4,172,-43,16,-1,-1
24,-64,-2,170,-34,15,-1,-1
25,-68,-2,177,-41,22,-1,-1
23,-77,-6,167,-33,18,-1,-1
20,-69,-1,185,-36,22,-1,-1
27,-74,-3,172,-44,13,-1,-1
19,-93,-5,173,-41,18,-1,-1
23,-91,-8,169,-44,11,-1,-1
21,-83,-3,170,-50,20,-1,-1
22,-79,-1,183,-35,26,-1,-1
19,-73,4,168,-36,22,-1,-1
24,-74,0,182,-38,22,-1,-1
21,-77,-1,170,-37,24,-1,-1
25,-65,1,174,-39,15,-1,-1
18,-59,6,175,-41,21,-1,-1
22,-63,-1,171,-39,20,-1,-1
21,-60,5,179,-31,22,-1,-1
27,-60,5,178,-39,20,-1,-1
31,-65,3,176,-38,21,-1,-1
16,-65,-3,169,-50,14,-1,-1
30,-68,-1,178,-36,15,-1,-1
17,-70,-7,160,-41,7,-1,-1
23,-67,-2,165,-41,19,-1,-1
27,-63,-2,175,-38,15,-1,-1
19,-52,-1,176,-52,12,-1,-1
30,-59,0,181,-35,22,-1,-1
23,-53,9,175,-37,20,-1,0
26,-51,1,174,-43,18,-1,-1
26,-51,-3,175,-42,21,-1,0
27,-57,-3,172,-36,16,-1,-1
24,-53,-3,173,-37,28,-1,-1
28,-57,5,181,-31,19,-1,-1
16,-55,0,175,-36,26,-1,-1
24,-57,8,168,-32,13,-1,-1
22,-59,-6,173,-37,20,-1,-1
20,-64,0,178,-37,17,-1,-1
19,-72,-1,159,-43,21,-1,-1
23,-61,10,185,-27,17,-1,-1
24,-65,8,172,-39,20,-1,-1
21,-68,6,178,-29,14,-1,-1
24,-72,-8,160,-51,17,-1,-1
14,-81,-5,174,-49,13,-1,-1
20,-74,-11,168,-31,22,-1,-1
26,-76,2,178,-45,24,-1,-1
22,-73,8,175,-24,26,-1,-1
27,-60,3,174,-40,22,-1,-1
19,-71,-2,174,-32,21,-1,-1
16,-86,-9,175,-43,14,-1,-1
20,-77,-4,167,-43,14,-1,-1
24,-72,-3,181,-45,21,-1,-1
23,-64,1,171,-34,19,-1,-1
30,-54,11,178,-31,21,-1,-1
25,-60,9,177,-33,24,-1,-1
26,-64,4,178,-33,13,-1,-1
21,-79,-12,172,-41,13,-1,-1
12,-80,-6,179,-49,14,-1,-1
22,-78,-3,170,-36,24,-1,-1
24,-58,11,180,-27,23,-1,-1
21,-61,1,174,-23,20,-1,-1
27,-64,5,171,-38,21,-1,-1
18,-77,-8,181,-47,15,-1,-1
20,-80,-9,170,-41,20,-1,-1
19,-77,0,176,-37,22,-1,-1
28,-68,1,185,-32,24,-1,-1
26,-71,12,178,-40,23,-1,-1
27,-72,-2,173,-39,22,-1,-1
21,-67,-6,174,-47,18,-1,-1
23,-77,-7,176,-39,23,-1,-1
25,-74,3,179,-29,21,-1,-1
30,-76,3,175,-38,25,-1,-1
25,-63,7,182,-24,26,-1,-1
25,-55,2,182,-33,24,-1,-1
25,-68,4,171,-37,22,-1,-1
21,-78,-7,170,-44,19,-1,-1
21,-81,-2,174,-33,19,-1,-1
26,-67,2,181,-39,21,-1,-1
19,-55,5,178,-38,22,-1,-1
31,-53,12,180,-29,22,-1,-1
25,-62,5,171,-42,20,-1,-1
17,-66,-4,174,-41,15,-1,-1
18,-70,-7,173,-44,23,-1,-1
27,-63,6,171,-34,17,-1,-1
17,-56,8,184,-30,24,-1,-1
31,-54,8,176,-18,23,-1,-1
26,-48,6,193,-40,26,-1,-1
21,-64,-2,166,-36,24,-1,0
23,-70,-5,177,-48,21,-1,-1
15,-76,-3,170,-38,19,-1,-1
27,-60,7,183,-26,28,-1,-1
26,-51,8,182,-30,25,-1,-1
28,-58,8,173,-34,22,0,-1
23,-69,0,179,-38,20,-1,-1
26,-72,-2,179,-41,18,-1,-1
19,-74,3,177,-36,22,-1,-1
32,-66,4,171,-37,27,-1,-1
29,-52,11,186,-15,22,-1,-1
26,-50,7,174,-36,22,-1,-1
29,-62,0,181,-35,16,-1,-1
16,-72,-5,174,-41,14,-1,-1
28,-71,-2,180,-40,15,-1,-1
21,-64,0,171,-43,19,-1,-1
20,-57,-2,189,-34,28,-1,-1
32,-56,3,167,-31,22,-1,-1
22,-68,-4,179,-38,18,-1,-1
21,-64,-3,179,-46,16,-1,-1
22,-62,-4,168,-36,9,-1,-1
16,-65,-3,173,-49,18,-1,-1
25,-79,-1,175,-37,16,-1,-1
28,-66,2,179,-30,23,-1,-1
24,-75,3,179,-35,29,-1,-1
24,-74,2,177,-29,21,-1,0
29,-71,4,175,-36,20,-1,-1
27,-65,0,169,-36,22,-1,-1
18,-66,0,192,-35,19,-1,-1
27,-63,5,175,-32,20,-1,0
25,-59,14,181,-25,22,-1,-1
31,-55,5,173,-34,24,-1,-1
22,-66,5,176,-39,18,-1,-1
18,-71,-5,165,-35,18,-1,-1
26,-74,-4,175,-39,11,-1,-1
18,-62,5,171,-31,18,-1,-1
27,-57,7,178,-22,24,-1,-1
20,-53,5,181,-46,17,-1,-1
24,-64,-3,168,-38,19,-1,-1
20,-77,-6,178,-47,14,-1,-1
16,-73,-4,172,-36,19,-1,-1
22,-70,0,186,-35,20,-1,-1
20,-70,4,161,-27,27,-1,-1
25,-69,5,187,-39,21,-1,-1
25,-68,-2,165,-45,21,-1,-1
18,-71,-2,176,-41,19,-1,-1
20,-67,-5,171,-38,26,-1,-1
19,-59,-5,167,-38,22,-1,-1
21,-51,4,181,-39,21,-1,-1
20,-63,-1,176,-30,27,-1,-1
27,-65,0,168,-36,14,-1,-1
21,-65,0,184,-39,20,-1,-1
17,-61,-2,179,-32,16,-1,-1
21,-71,-5,172,-41,24,-1,-1
21,-55,0,168,-32,14,-1,-1
22,-48,4,180,-27,19,0,-1
21,-61,-2,177,-47,9,-1,-1
18,-68,-4,174,-39,13,-1,-1
23,-77,-5,176,-43,22,-1,-1
23,-68,6,177,-28,19,-1,-1
24,-67,5,176,-30,27,-1,-1
23,-65,14,186,-27,24,-1,-1
28,-66,4,183,-33,21,-1,-1
26,-74,5,171,-32,22,-1,-1
22,-70,6,184,-39,18,-1,-1
26,-67,4,179,-44,24,-1,-1
28,-67,4,177,-31,30,-1,-1
20,-68,8,175,-34,20,-1,-1
23,-66,4,182,-37,27,-1,-1
28,-64,5,176,-31,19,-1,-1
23,-71,3,177,-34,24,-1,-1
20,-66,2,183,-38,18,-1,-1
25,-72,1,174,-44,20,-1,-1
23,-69,-4,187,-33,18,-1,-1
27,-67,2,181,-38,26,-1,-1
26,-67,-2,184,-29,23,-1,-1
26,-67,7,177,-32,25,-1,-1
29,-73,-1,177,-39,21,-1,-1
25,-76,-2,172,-31,21,-1,-1
18,-73,-1,182,-42,13,-1,-1
14,-77,-1,166,-32,18,-1,-1
27,-64,7,181,-34,20,-1,-1
23,-64,12,185,-35,21,-1,-1
23,-64,3,181,-31,20,-1,-1
20,-69,0,173,-41,25,-1,-1
25,-80,0,176,-45,18,-1,-1
22,-72,1,175,-37,29,-1,-1
26,-62,5,177,-30,29,-1,0
28,-74,5,182,-49,23,-1,-1
23,-78,-3,171,-39,17,-1,-1
23,-75,-3,182,-39,19,-1,-1
25,-71,1,180,-41,13,-1,-1
27,-64,-3,171,-29,20,-1,-1
30,-58,2,172,-43,16,-1,-1
28,-64,1,177,-36,27,0,-1
25,-55,0,180,-27,21,-1,-1
23,-53,1,191,-39,23,-1,-1
21,-67,4,172,-54,17,-1,-1
29,-65,-2,180,-32,24,-1,-1
19,-67,-1,167,-33,20,-1,-1
25,-78,-7,180,-31,23,-1,-1
19,-70,-5,178,-37,14,-1,-1
22,-68,5,160,-34,20,-1,-1
21,-61,-2,178,-30,20,-1,-1
22,-69,-2,175,-33,16,-1,-1
20,-68,-6,169,-37,16,-1,-1
17,-68,0,165,-34,15,-1,-1
15,-65,-3,188,-24,13,-1,-1
23,-67,4,176,-28,17,-1,-1
20,-59,4,179,-39,15,-1,-1
24,-59,2,186,-38,18,-1,-1
22,-57,-1,167,-29,19,-1,-1
22,-62,2,177,-28,21,-1,-1
27,-47,5,174,-26,22,-1,-1
25,-56,2,185,-34,25,-1,-1
24,-57,3,183,-38,25,-1,0
25,-64,-1,186,-37,28,-1,-1
26,-61,2,176,-34,18,-1,-1
25,-59,1,178,-30,19,-1,-1
24,-64,6,185,-24,25,-1,-1
22,-69,1,175,-37,22,-1,-1
24,-79,-5,179,-41,19,-1,-1
17,-90,-5,170,-43,19,-1,-1
19,-76,-5,172,-44,22,-1,-1
23,-71,7,178,-25,30,-1,-1
26,-75,-1,172,-34,28,-1,-1
14,-79,4,168,-38,24,-1,-1
27,-78,-3,173,-35,26,-1,-1
15,-74,7,175,-39,20,-1,-1
25,-69,10,179,-25,24,-1,-1
23,-69,13,185,-42,20,-1,-1
21,-72,7,179,-35,20,-1,-1
28,-65,11,182,-30,22,-1,-1
27,-61,7,183,-38,16,-1,-1
21,-61,4,175,-37,29,-1,-1
23,-63,3,185,-39,19,-1,-1
25,-53,11,183,-25,23,-1,-1
23,-66,5,178,-39,28,-1,-1
30,-70,6,187,-27,27,-1,-1
29,-63,7,173,-35,19,-1,-1
22,-77,4,180,-37,18,-1,-1
28,-74,-2,185,-33,25,-1,-1
25,-64,5,181,-34,21,-1,-1
26,-63,2,180,-38,26,-1,-1
30,-69,0,181,-32,21,-1,-1
22,-72,0,177,-30,26,-1,-1
31,-68,4,174,-37,20,-1,-1
22,-62,3,168,-27,25,-1,-1
24,-68,-1,178,-38,20,-1,-1
20,-59,1,182,-32,30,-1,-1
26,-61,-5,189,-36,20,-1,-1
26,-63,6,169,-32,24,-1,-1
28,-65,4,173,-33,25,-1,-1
28,-61,4,183,-33,13,-1,-1
26,-70,4,174,-39,18,-1,-1
22,-74,-7,176,-43,20,-1,-1
20,-70,2,169,-48,21,-1,-1
26,-56,0,181,-31,21,-1,-1
24,-62,7,176,-26,24,-1,-1
30,-57,5,173,-32,27,-1,-1
26,-57,11,187,-34,26,-1,-1
25,-67,0,170,-32,18,-1,-1
22,-67,-8,172,-34,12,-1,-1
21,-58,0,181,-34,25,-1,-1
28,-61,6,168,-42,17,-1,-1
27,-67,5,183,-33,21,-1,-1
18,-71,2,176,-28,21,-1,-1
29,-73,0,174,-36,15,-1,-1
22,-69,0,176,-28,26,-1,-1
30,-66,0,185,-39,20,-1,-1
25,-56,6,182,-28,27,-1,-1
26,-64,3,181,-35,29,-1,-1
28,-62,1,191,-27,21,-1,-1
26,-58,7,171,-37,25,-1,-1
30,-54,11,189,-24,19,-1,-1
28,-69,8,172,-38,14,-1,-1
24,-58,4,181,-38,17,-1,-1
25,-63,5,184,-30,22,-1,-1
30,-70,10,174,-32,27,-1,-1
30,-61,10,175,-29,25,-1,-1
24,-60,10,182,-36,26,-1,-1
26,-67,10,173,-29,17,-1,-1
17,-76,-3,176,-39,24,-1,-1
26,-79,-1,168,-44,18,-1,-1
28,-80,-2,189,-32,24,-1,-1
26,-67,8,178,-31,21,-1,-1
27,-73,1,173,-45,17,-1,-1
24,-78,-7,177,-41,17,-1,-1
18,-77,-7,169,-46,24,-1,-1
23,-74,-2,174,-40,21,-1,-1
25,-77,4,175,-36,24,-1,-1
23,-62,6,179,-23,21,-1,-1
25,-68,2,182,-34,26,-1,-1
25,-64,2,167,-29,18,-1,-1
28,-70,-2,182,-45,24,-1,-1
19,-70,-5,170,-42,24,-1,-1
26,-74,0,174,-33,24,-1,-1
27,-70,4,177,-30,27,-1,-1
26,-69,8,177,-28,22,-1,-1
26,-66,7,172,-39,22,-1,-1
23,-71,-5,180,-42,11,-1,-1
12,-83,-1,173,-40,15,-1,-1
23,-78,-4,174,-42,21,-1,-1
18,-74,6,175,-30,20,-1,-1
25,-70,2,179,-27,26,-1,-1
23,-57,10,174,-23,25,-1,-1
24,-51,-2,178,-42,24,-1,-1
19,-68,1,174,-47,15,-1,-1
15,-73,-5,177,-38,21,-1,-1
17,-64,2,170,-36,27,-1,-1
27,-59,8,180,-39,19,-1,-1
23,-49,6,168,-25,24,-1,-1
23,-53,-1,181,-41,15,-1,-1
17,-65,-2,169,-38,23,-1,-1
23,-71,4,180,-34,21,-1,-1
22,-57,2,179,-35,23,-1,-1
27,-63,7,174,-31,21,-1,-1
24,-63,-4,177,-44,20,-1,-1
20,-71,5,174,-32,21,-1,-1
24,-65,1,176,-35,26,-1,-1
29,-60,1,176,-37,22,-1,-1
27,-63,5,174,-31,27,-1,-1
26,-57,2,181,-44,20,-1,-1
29,-62,7,178,-28,26,-1,-1
26,-61,8,182,-35,25,-1,-1
28,-56,7,175,-29,22,-1,-1
25,-45,8,180,-35,19,-1,-1
27,-68,0,170,-34,14,-1,0
20,-66,-5,173,-40,22,-1,-1
33,-67,-7,172,-36,17,-1,-1
22,-72,3,174,-28,20,-1,-1
25,-62,7,178,-41,21,-1,-1
19,-68,0,167,-28,19,-1,-1
24,-85,-9,178,-37,13,-1,-1
18,-74,-9,165,-40,16,-1,-1
19,-75,-8,182,-31,20,-1,-1
19,-77,-6,168,-41,13,-1,-1
22,-72,1,177,-25,20,-1,-1
24,-65,5,183,-36,27,-1,-1
30,-63,4,175,-31,22,-1,-1
26,-63,5,182,-39,26,-1,-1
24,-71,2,169,-33,24,-1,-1
20,-74,2,188,-30,17,-1,-1
28,-74,9,162,-28,21,-1,-1
22,-64,9,184,-34,29,-1,-1
27,-68,-2,175,-35,26,-1,-1
26,-65,3,178,-42,17,-1,-1
21,-83,-1,171,-39,23,-1,-1
24,-76,-5,179,-39,20,-1,-1
23,-66,4,175,-31,35,-1,-1
33,-63,7,189,-28,23,-1,-1
27,-55,3,170,-33,23,-1,-1
25,-63,0,181,-31,24,-1,-1
23,-69,-11,161,-46,17,-1,-1
22,-77,-11,175,-50,15,-1,-1
21,-75,-6,178,-34,22,-1,-1
24,-63,6,166,-29,27,-1,-1
32,-68,10,189,-30,23,-1,-1
22,-64,2,175,-35,17,-1,-1
25,-78,-1,176,-45,19,-1,-1
24,-77,-3,167,-37,18,-1,-1
25,-80,0,181,-35,16,-1,-1
30,-70,1,175,-37,17,-1,-1
20,-57,15,191,-34,27,-1,-1
29,-64,13,169,-34,24,-1,-1
26,-72,6,182,-37,19,-1,-1
27,-74,11,178,-39,28,0,-1
24,-65,3,181,-34,26,-1,-1
26,-71,3,176,-32,23,-1,-1
30,-68,7,174,-27,27,-1,-1
33,-57,9,182,-32,20,-1,-1
26,-62,11,180,-32,18,-1,-1
28,-59,-2,168,-33,20,-1,-1
27,-69,2,175,-42,14,-1,-1
25,-57,6,192,-34,20,-1,-1
25,-58,7,176,-23,25,-1,-1
25,-50,13,175,-28,20,-1,-1
29,-65,4,178,-30,24,-1,-1
23,-58,2,173,-45,16,-1,-1
23,-70,-4,173,-35,22,-1,-1
25,-67,-1,179,-39,23,-1,-1
26,-58,15,176,-33,22,-1,-1
28,-51,6,175,-30,23,-1,-1
26,-58,2,176,-37,25,-1,-1
23,-66,2,175,-36,20,-1,-1
32,-68,-4,179,-39,22,-1,-1
15,-57,-2,178,-39,23,-1,-1
26,-65,3,177,-39,28,-1,-1
32,-59,3,177,-35,22,-1,0
23,-68,5,174,-36,21,-1,-1
21,-66,1,178,-41,20,-1,-1
23,-58,7,180,-32,23,-1,-1
24,-63,2,179,-28,18,-1,-1
23,-66,6,186,-30,21,-1,-1
23,-62,-1,177,-31,21,-1,-1
23,-66,0,173,-28,16,-1,-1
25,-72,3,172,-36,25,-1,-1
24,-67,1,177,-33,22,-1,-1
26,-76,1,186,-38,20,-1,-1
19,-71,-11,180,-37,18,-1,-1
19,-73,1,168,-38,21,-1,-1
23,-62,1,190,-27,24,-1,-1
31,-63,10,172,-29,22,-1,0
21,-70,4,173,-38,18,-1,-1
25,-68,-5,176,-34,17,-1,-1
18,-73,-2,176,-47,18,-1,-1
23,-72,0,178,-36,21,-1,-1
24,-66,11,175,-24,19,-1,-1
26,-61,10,172,-25,22,-1,-1
27,-68,6,175,-27,16,-1,-1
25,-72,7,181,-30,17,-1,-1
24,-68,-1,171,-37,19,-1,-1
24,-66,2,180,-46,19,-1,-1
21,-67,-2,165,-25,22,-1,-1
32,-61,10,181,-35,25,-1,-1
28,-64,3,178,-25,25,-1,-1
31,-70,2,175,-41,29,-1,-1
24,-72,2,174,-38,24,-1,-1
29,-67,-3,174,-45,26,-1,-1
20,-72,-2,176,-40,26,-1,-1
26,-62,2,170,-27,16,-1,-1
28,-62,10,179,-33,27,-1,-1
27,-61,4,182,-33,14,-1,-1
27,-72,3,175,-36,21,-1,-1
27,-76,1,180,-38,26,-1,-1
23,-69,4,183,-36,19,-1,-1
26,-63,4,174,-29,21,-1,-1
30,-68,14,180,-29,23,-1,-1
32,-68,8,180,-33,29,-1,-1
20,-66,9,184,-30,20,-1,-1
28,-71,-2,178,-34,17,-1,-1
27,-83,-2,172,-32,23,-1,-1
21,-79,2,179,-39,19,-1,-1
29,-65,7,183,-20,23,-1,-1
29,-69,9,167,-39,20,-1,-1
27,-73,-2,172,-41,20,-1,-1
17,-73,-8,176,-37,16,-1,-1
22,-70,-2,176,-44,25,-1,-1
23,-69,-1,171,-34,25,-1,-1
29,-59,8,183,-34,24,-1,-1
19,-50,10,176,-28,27,-1,-1
22,-61,7,181,-31,25,-1,0
29,-63,2,179,-32,22,-1,-1
20,-74,-4,169,-39,20,-1,-1
27,-62,-2,176,-49,19,-1,-1
18,-60,-1,179,-29,21,-1,-1
26,-58,8,175,-29,23,-1,-1
20,-56,3,188,-32,24,-1,-1
25,-61,4,165,-34,22,-1,-1
21,-71,-1,187,-45,18,0,-1
20,-73,-7,162,-38,19,-1,-1
23,-69,-1,168,-38,19,-1,-1
22,-67,2,191,-25,18,0,-1
20,-54,11,182,-33,24,0,-1
23,-56,7,182,-32,18,-1,-1
30,-77,-1,177,-36,28,-1,-1
22,-77,-6,174,-40,27,-1,-1
25,-74,-6,186,-44,14,-1,-1
26,-71,-1,174,-35,26,-1,-1
27,-66,6,175,-29,21,-1,-1
28,-67,9,183,-27,26,-1,-1
19,-77,6,180,-32,18,-1,-1
26,-83,-1,179,-42,22,-1,-1
22,-72,-3,173,-35,18,-1,-1
22,-72,3,181,-37,26,-1,-1
21,-70,13,179,-22,23,-1,-1
27,-65,14,180,-23,37,-1,-1
30,-63,9,171,-38,20,-1,-1
18,-73,3,183,-36,18,-1,-1
25,-67,-3,169,-38,20,-1,-1
23,-72,6,172,-41,22,-1,-1
21,-69,2,181,-35,23,-1,-1
24,-62,3,172,-35,14,-1,-1
31,-62,10,187,-28,20,0,-1
24,-53,3,179,-27,23,-1,-1
24,-64,1,183,-43,19,-1,-1
28,-66,-3,171,-39,19,-1,-1
16,-65,0,185,-33,24,-1,-1
25,-73,2,169,-37,21,-1,-1
26,-63,4,174,-37,24,-1,-1
27,-60,8,183,-40,27,-1,-1
26,-59,2,167,-30,13,-1,-1
22,-61,7,185,-34,22,-1,-1
19,-60,-8,164,-47,17,-1,-1
27,-66,2,177,-29,23,-1,-1
24,-61,4,179,-39,23,-1,-1
24,-50,7,181,-28,20,-1,-1
23,-56,4,181,-25,18,-1,-1
24,-60,5,179,-38,26,-1,-1
22,-66,-3,165,-47,21,-1,-1
20,-64,1,181,-36,18,-1,-1
22,-58,-1,180,-39,26,-1,-1
22,-56,9,179,-40,17,-1,-1
24,-58,7,177,-35,20,-1,-1
25,-60,4,175,-42,20,-1,-1
25,-69,-1,173,-41,14,-1,-1
22,-70,2,185,-37,17,-1,-1
25,-72,-4,176,-37,23,-1,-1
23,-69,6,182,-38,18,-1,-1
23,-67,6,173,-36,20,-1,-1
21,-65,4,179,-38,12,-1,-1
30,-64,5,181,-38,26,-1,-1
25,-58,9,174,-37,16,-1,-1
34,-59,7,183,-26,19,-1,-1
23,-60,5,179,-36,19,-1,-1
23,-70,2,186,-38,20,-1,-1
26,-70,9,173,-33,24,-1,-1
28,-69,4,174,-27,26,-1,-1
28,-70,5,177,-27,22,-1,-1
26,-65,11,194,-34,27,-1,-1
27,-63,6,179,-33,29,-1,-1
25,-69,0,183,-34,24,-1,-1
13,-63,2,180,-37,21,-1,-1
33,-63,0,181,-38,28,-1,-1
19,-65,-3,169,-34,21,-1,-1
22,-64,-2,180,-35,22,-1,-1
24,-64,8,181,-38,31,-1,-1
26,-73,-3,175,-31,28,-1,-1
22,-65,-1,178,-41,24,-1,-1
24,-73,0,183,-39,29,-1,-1
28,-66,9,166,-25,23,-1,-1
32,-62,8,191,-32,25,-1,-1
21,-69,6,168,-37,20,-1,-1
26,-71,9,176,-35,24,-1,-1
24,-66,4,178,-33,26,-1,-1
22,-66,2,185,-47,19,-1,-1
26,-66,7,183,-34,26,-1,-1
27,-74,8,181,-30,27,-1,-1
32,-62,7,187,-32,24,-1,-1
21,-62,6,178,-33,24,-1,-1
30,-78,0,170,-36,21,-1,-1
24,-68,-3,173,-34,22,-1,-1
21,-73,2,178,-39,17,-1,-1
21,-65,-4,172,-34,17,-1,-1
21,-70,4,171,-34,18,-1,-1
25,-64,1,185,-32,11,-1,-1
19,-73,1,166,-42,19,-1,-1
23,-57,1,181,-29,19,-1,-1
21,-61,0,168,-37,21,-1,-1
22,-68,-3,173,-43,18,-1,-1
26,-67,2,175,-18,14,-1,-1
20,-65,4,174,-39,25,-1,-1
22,-64,-3,183,-28,20,-1,-1
30,-66,4,186,-39,21,-1,-1
24,-66,-7,178,-36,23,-1,-1
24,-68,-1,179,-40,21,-1,-1
29,-57,-3,176,-29,23,-1,-1
23,-59,6,174,-33,24,-1,-1
29,-60,0,188,-34,25,-1,-1
25,-65,1,170,-35,21,-1,-1
24,-68,0,174,-35,25,-1,-1
26,-61,2,180,-37,24,-1,-1
25,-66,2,175,-41,22,-1,-1
26,-60,3,176,-31,25,-1,-1
24,-61,-1,165,-36,21,-1,-1
20,-71,0,167,-34,17,-1,-1
19,-61,3,179,-36,11,-1,-1
28,-63,4,172,-41,21,-1,-1
16,-65,-4,173,-38,8,-1,0
23,-77,1,183,-35,15,-1,-1
19,-77,2,172,-37,20,-1,-1
21,-77,1,170,-39,21,-1,-1
26,-59,4,173,-37,14,-1,-1
20,-62,2,182,-31,27,-1,-1
23,-64,1,169,-39,25,-1,-1
21,-56,7,173,-24,20,-1,-1
23,-60,1,174,-43,18,-1,-1
19,-86,2,184,-34,22,-1,-1
19,-80,-2,167,-39,15,-1,-1
24,-71,1,182,-31,23,-1,-1
24,-63,2,179,-32,23,-1,-1
22,-65,3,187,-33,21,-1,-1
26,-62,-3,165,-41,19,-1,-1
17,-64,-4,188,-44,21,-1,-1
27,-64,-1,178,-40,13,-1,-1
19,-75,0,169,-35,21,-1,-1
26,-70,2,182,-41,20,-1,-1
22,-67,-1,183,-35,20,-1,-1
23,-58,-1,172,-31,25,-1,-1
24,-60,3,176,-42,21,-1,-1
31,-60,2,174,-35,23,-1,-1
18,-62,2,178,-42,25,-1,-1
27,-73,-3,179,-39,31,-1,-1
22,-63,5,165,-32,25,-1,-1
23,-65,-2,171,-36,27,-1,-1
26,-70,4,188,-30,23,-1,-1
27,-65,1,166,-36,17,-1,-1
20,-66,0,180,-46,23,-1,-1
22,-75,-3,172,-37,22,-1,-1
18,-66,-3,162,-42,16,-1,-1
23,-65,0,176,-32,16,-1,-1
26,-60,1,182,-40,19,-1,-1
24,-58,7,165,-30,20,-1,-1
19,-62,0,180,-30,17,-1,-1
26,-64,0,180,-45,14,-1,-1
22,-73,-6,169,-38,11,-1,-1
19,-74,-4,186,-41,20,-1,-1
23,-54,-3,175,-36,14,-1,-1
22,-56,11,185,-25,18,-1,-1
28,-58,2,170,-37,23,-1,-1
26,-66,-2,179,-31,13,-1,-1
18,-67,-9,174,-53,16,-1,-1
26,-68,-6,184,-35,20,-1,-1
22,-67,2,180,-36,15,-1,-1
26,-55,8,173,-23,22,0,-1
22,-57,3,177,-36,19,-1,-1
20,-57,-1,177,-38,20,-1,-1
23,-67,-4,160,-38,23,-1,-1
17,-73,-7,182,-43,15,-1,-1
23,-70,0,175,-30,21,-1,-1
25,-63,10,181,-23,25,-1,-1
26,-54,9,181,-31,26,-1,-1
30,-57,10,176,-25,28,-1,-1
22,-72,-4,180,-44,18,-1,-1
16,-73,0,168,-42,22,-1,-1
22,-78,-6,176,-42,13,-1,-1
25,-60,9,177,-25,22,-1,-1
27,-50,14,188,-25,30,-1,-1
27,-59,11,179,-32,22,-1,-1
25,-77,-4,173,-47,19,-1,-1
21,-81,-13,169,-45,17,-1,-1
19,-74,-9,173,-45,18,-1,-1
20,-66,0,176,-40,19,-1,-1
25,-60,10,177,-29,22,-1,-1
27,-58,14,183,-29,22,-1,-1
26,-62,1,179,-30,22,-1,-1
24,-66,-6,172,-34,23,-1,-1
20,-69,-3,167,-40,16,-1,-1
19,-63,2,187,-33,31,-1,0
29,-59,8,180,-19,23,-1,-1
25,-65,10,176,-22,25,-1,-1
27,-61,2,181,-28,22,-1,-1
24,-70,7,178,-33,18,0,-1
25,-78,-5,171,-31,18,-1,-1
23,-75,2,177,-34,19,-1,-1
24,-72,3,174,-32,16,-1,-1
27,-55,8,187,-32,19,-1,-1
22,-58,11,180,-28,14,-1,0
28,-68,6,170,-41,25,-1,-1
22,-77,0,175,-37,18,-1,-1
16,-82,-7,171,-51,17,-1,-1
23,-81,-4,172,-44,22,-1,-1
23,-76,0,174,-37,26,-1,-1
20,-59,7,171,-34,26,-1,-1
25,-61,9,185,-31,26,-1,-1
24,-63,-3,165,-44,20,-1,-1
15,-78,-2,178,-40,22,-1,-1
22,-68,-4,174,-34,24,-1,-1
23,-62,6,172,-30,27,-1,-1
19,-56,10,183,-35,25,-1,-1
32,-54,6,177,-32,21,-1,-1
21,-69,0,173,-29,22,-1,-1
24,-76,-3,175,-43,17,-1,-1
20,-75,-2,172,-44,26,-1,-1
23,-72,1,184,-28,23,-1,-1
35,-51,16,178,-27,21,-1,-1
25,-54,11,187,-34,19,-1,-1
24,-65,8,163,-35,21,-1,-1
25,-74,-4,174,-41,18,-1,-1
21,-73,1,177,-43,18,-1,-1
21,-68,-2,172,-29,34,-1,-1
26,-60,7,184,-28,28,-1,-1
19,-75,6,177,-29,23,-1,-1
27,-73,2,183,-38,15,-1,-1
19,-69,-1,177,-34,17,-1,-1
18,-75,-5,168,-38,19,-1,-1
24,-68,2,180,-45,18,-1,-1
22,-58,1,182,-26,21,-1,-1
22,-58,6,176,-38,21,-1,-1
30,-53,10,180,-33,18,-1,-1
25,-51,5,173,-39,26,-1,-1
32,-66,1,171,-34,23,-1,-1
29,-75,-6,181,-34,21,-1,-1
24,-74,2,172,-39,25,-1,-1
28,-64,1,172,-29,17,-1,-1
26,-59,11,182,-33,22,-1,-1
27,-62,14,176,-28,20,-1,-1
28,-63,2,179,-40,21,-1,-1
17,-67,-4,171,-36,24,-1,-1
25,-73,0,177,-46,23,-1,-1
28,-61,2,178,-33,23,-1,-1
21,-58,3,173,-29,25,-1,-1
23,-58,5,173,-36,18,-1,-1
21,-65,-1,176,-34,18,-1,-1
20,-68,-2,175,-42,20,-1,-1
18,-66,-6,169,-42,14,-1,-1
26,-64,-1,176,-43,21,-1,-1
23,-60,-1,177,-40,17,-1,-1
25,-70,3,175,-42,25,-1,-1
23,-60,-6,177,-39,21,-1,-1
20,-56,5,171,-31,21,-1,-1
25,-66,-1,169,-39,21,-1,-1
27,-74,-4,172,-36,14,-1,-1
21,-67,3,180,-33,23,-1,-1
22,-65,1,172,-34,19,-1,-1
30,-67,8,182,-27,21,-1,-1
19,-63,4,171,-37,19,-1,-1
24,-78,2,175,-36,22,-1,-1
24,-74,2,181,-36,13,-1,-1
22,-65,3,164,-28,24,-1,-1
25,-66,8,175,-37,19,-1,-1
18,-66,4,180,-28,15,-1,-1
21,-62,4,169,-32,14,-1,-1
22,-59,-4,180,-40,15,-1,-1
18,-66,1,175,-35,17,-1,-1
23,-65,-1,171,-36,18,-1,-1
20,-59,7,176,-31,23,-1,-1
28,-59,9,174,-26,25,-1,-1
25,-64,7,172,-29,21,-1,-1
24,-71,6,181,-41,29,-1,-1
21,-69,-2,181,-47,22,-1,-1
23,-63,2,171,-34,23,0,-1
24,-61,3,185,-32,31,-1,-1
22,-61,4,181,-34,20,-1,-1
23,-58,7,168,-34,26,-1,-1
23,-67,-2,177,-38,21,-1,-1
21,-70,-2,180,-36,19,-1,-1
24,-70,-1,169,-41,21,-1,-1
24,-64,1,183,-31,12,-1,-1
25,-65,-1,173,-40,20,-1,-1
22,-68,6,180,-28,17,-1,-1
20,-63,0,170,-39,23,-1,-1
21,-67,-1,177,-41,17,-1,-1
19,-75,-1,172,-38,15,-1,-1
19,-67,-1,175,-41,12,-1,-1
19,-58,3,170,-28,22,-1,-1
23,-58,-3,174,-47,10,-1,-1
14,-64,-4,177,-45,17,-1,-1
22,-74,-4,176,-34,13,-1,-1
20,-77,3,178,-42,16,-1,-1
22,-65,3,177,-25,22,-1,-1
26,-67,7,183,-34,28,-1,-1
23,-65,7,190,-31,22,-1,0
17,-77,4,178,-42,23,-1,-1
29,-82,-6,166,-44,27,-1,-1
22,-74,-4,192,-39,20,-1,-1
26,-73,0,177,-35,24,-1,-1
27,-73,3,171,-36,20,-1,-1
24,-75,-3,172,-40,19,-1,-1
23,-73,-3,179,-35,22,-1,-1
22,-78,4,170,-47,20,-1,-1
30,-71,-5,182,-36,21,-1,-1
18,-77,-4,166,-48,21,-1,-1
23,-72,0,178,-33,20,-1,-1
22,-59,7,182,-31,23,-1,-1
27,-55,4,176,-28,25,-1,-1
21,-66,-5,167,-44,15,-1,-1
15,-74,-6,178,-41,21,-1,-1
17,-67,-6,177,-36,21,-1,-1
25,-67,3,179,-35,28,-1,-1
28,-59,-2,178,-28,28,-1,-1
24,-71,-1,176,-32,25,-1,-1
28,-81,-2,174,-39,19,-1,-1
22,-75,-4,177,-37,19,-1,-1
20,-70,-2,174,-43,13,-1,-1
27,-59,3,172,-26,30,-1,-1
22,-61,4,180,-31,23,-1,-1
25,-65,5,171,-34,23,-1,-1
23,-70,-1,175,-40,21,-1,-1
21,-78,-2,180,-38,19,-1,-1
23,-62,6,172,-36,19,-1,-1
26,-64,3,173,-35,22,-1,-1
23,-64,0,181,-40,15,-1,-1
22,-64,1,165,-38,21,-1,-1
18,-63,3,179,-34,22,-1,-1
26,-56,7,179,-27,20,-1,-1
23,-65,4,169,-39,19,-1,-1
20,-69,-5,173,-42,17,-1,-1
21,-82,-2,177,-33,14,-1,-1
26,-68,0,178,-39,18,-1,-1
22,-60,11,171,-27,26,-1,-1
23,-50,11,182,-28,27,-1,-1
29,-70,3,179,-37,23,-1,-1
16,-73,-1,183,-40,23,-1,-1
19,-67,-3,168,-46,17,-1,-1
26,-58,1,174,-41,26,-1,-1
27,-53,5,179,-37,18,-1,-1
22,-59,11,174,-40,17,-1,-1
22,-55,-1,185,-41,15,-1,-1
20,-63,-13,168,-46,16,-1,-1
18,-73,-4,174,-44,19,-1,-1
20,-61,-2,171,-42,16,-1,-1
20,-68,2,179,-41,20,-1,-1
26,-66,5,169,-35,12,-1,-1
17,-70,-3,170,-42,23,-1,-1
25,-71,-6,178,-44,19,-1,-1
15,-70,-8,164,-44,14,-1,-1
19,-72,-10,169,-35,16,-1,-1
13,-78,-10,174,-40,18,-1,-1
22,-76,-3,176,-36,20,-1,-1
19,-65,5,175,-42,19,-1,-1
15,-69,-8,166,-31,20,-1,-1
21,-80,-4,175,-50,19,-1,-1
12,-86,-9,182,-43,22,-1,-1
17,-68,-8,172,-45,28,-1,-1
24,-71,-4,174,-37,25,-1,-1
21,-65,5,175,-23,27,-1,-1
31,-63,5,170,-35,23,-1,-1
18,-65,-3,180,-36,18,-1,-1
22,-80,-7,172,-38,16,-1,-1
14,-82,-5,170,-47,13,-1,-1
20,-79,-1,168,-37,7,-1,-1
20,-67,4,171,-40,16,-1,-1
23,-58,4,173,-32,14,-1,-1
22,-61,1,177,-41,13,0,-1
14,-70,-7,162,-38,12,-1,-1
12,-77,-6,169,-53,7,-1,-1
16,-68,-11,162,-41,13,-1,-1
26,-54,7,179,-27,18,-1,-1
20,-68,5,173,-32,22,-1,-1
19,-69,-3,167,-47,13,-1,-1
17,-68,-10,173,-51,13,-1,-1
14,-75,-12,157,-48,17,-1,-1
13,-69,-6,175,-52,15,-1,-1
21,-68,-3,170,-36,20,-1,-1
20,-73,2,178,-32,20,-1,-1
20,-71,0,176,-43,19,-1,0
22,-73,0,160,-39,17,-1,-1
19,-68,-7,176,-39,18,-1,0
23,-63,0,173,-38,18,-1,-1
18,-77,-8,173,-48,18,-1,-1
20,-64,5,168,-33,23,-1,-1
25,-59,3,173,-27,25,-1,-1
25,-66,4,164,-38,19,-1,-1
16,-67,-1,183,-38,11,-1,-1
15,-75,-5,171,-42,23,-1,-1
21,-68,-4,167,-49,11,-1,-1
16,-68,-7,181,-37,27,-1,-1
22,-65,7,155,-41,17,-1,-1
21,-78,-3,179,-39,12,-1,-1
17,-77,2,162,-41,15,-1,-1
13,-78,-11,170,-49,13,-1,-1
22,-72,-6,175,-41,13,-1,-1
14,-68,0,175,-33,17,-1,-1
26,-72,1,179,-30,22,-1,-1
23,-66,1,173,-33,27,-1,-1
21,-67,-4,174,-30,15,-1,-1
17,-71,-8,168,-47,18,-1,-1
20,-66,-9,171,-40,21,-1,-1
26,-65,2,170,-36,28,-1,-1
23,-67,3,177,-37,21,-1,-1
31,-69,5,174,-30,16,-1,-1
22,-67,-2,173,-41,21,-1,-1
19,-68,-3,170,-42,14,-1,-1
21,-66,-5,179,-46,20,-1,-1
16,-62,-3,170,-43,24,-1,0
23,-70,4,172,-36,17,-1,-1
19,-70,1,163,-39,21,-1,-1
18,-73,0,184,-30,17,-1,-1
26,-70,0,172,-36,25,-1,-1
21,-70,2,168,-38,14,-1,-1
18,-73,-3,167,-44,11,-1,-1
21,-73,-4,181,-41,19,-1,-1
20,-73,1,180,-30,26,-1,-1
34,-73,2,176,-41,18,-1,-1
23,-76,-1,182,-29,19,-1,-1
22,-71,-4,166,-47,18,-1,-1
18,-75,-10,171,-37,17,-1,-1
27,-75,-3,166,-38,22,-1,-1
21,-67,2,172,-38,23,-1,-1
23,-72,4,177,-34,24,-1,-1
23,-69,0,170,-38,20,-1,-1
19,-65,-4,180,-36,18,-1,-1
20,-71,-1,170,-43,20,-1,-1
23,-62,4,178,-36,22,-1,-1
15,-63,-3,174,-37,21,-1,-1
21,-57,1,173,-38,24,-1,-1
19,-64,2,168,-29,15,-1,-1
25,-63,4,183,-40,16,-1,-1
21,-73,-6,170,-36,15,-1,-1
18,-70,1,162,-35,20,-1,-1
21,-69,-5,180,-38,13,-1,-1
22,-71,-2,171,-36,16,-1,-1
19,-76,-9,181,-48,20,-1,-1
19,-68,-5,158,-40,15,0,-1
21,-78,-2,175,-44,14,-1,-1
23,-72,-2,177,-36,20,-1,-1
23,-76,-7,175,-49,16,-1,-1
20,-75,-1,172,-39,23,-1,-1
19,-70,-1,167,-41,14,0,-1
22,-67,-3,181,-39,24,-1,-1
22,-69,-1,162,-38,16,0,-1
21,-71,1,172,-38,20,-1,-1
21,-73,-2,170,-43,17,0,-1
17,-82,-1,166,-43,13,-1,-1
22,-74,-3,167,-44,16,-1,-1
18,-75,-6,179,-39,23,-1,-1
23,-65,-2,174,-42,17,-1,-1
16,-59,-9,179,-41,16,-1,-1
19,-68,-3,163,-46,16,-1,-1
23,-70,-15,166,-46,14,-1,-1
19,-80,-2,169,-37,16,-1,-1
17,-82,-9,172,-46,18,-1,-1
17,-77,0,174,-42,17,-1,-1
19,-75,-2,171,-32,23,-1,-1
22,-70,1,183,-36,20,-1,-1
17,-66,3,166,-33,16,-1,-1
24,-78,-2,181,-41,13,-1,-1
15,-65,1,165,-36,16,-1,-1
24,-74,-4,177,-40,23,-1,-1
18,-69,2,172,-41,14,-1,-1
17,-77,0,174,-36,24,-1,-1
21,-71,2,165,-38,26,-1,-1
21,-76,2,180,-35,21,0,-1
20,-77,-5,164,-44,18,-1,-1
19,-76,-3,175,-43,13,-1,-1
18,-71,-4,177,-34,16,-1,-1
22,-84,-3,172,-44,17,-1,-1
20,-80,-1,176,-40,14,-1,-1
9,-76,-9,161,-49,16,-1,-1
17,-77,-8,173,-51,10,-1,-1
20,-77,-9,176,-45,11,-1,-1
15,-67,-3,168,-44,21,-1,-1
20,-69,-5,167,-42,19,-1,-1
20,-54,1,167,-36,17,-1,-1
20,-69,-3,182,-38,18,-1,-1
19,-73,-4,158,-47,19,-1,-1
20,-76,1,166,-35,22,-1,-1
22,-66,0,167,-47,21,-1,-1
22,-67,-2,174,-44,16,-1,-1
17,-72,-1,168,-34,18,-1,-1
19,-71,0,176,-45,19,-1,-1
25,-68,2,174,-33,14,-1,-1
21,-59,6,175,-28,21,-1,-1
26,-63,2,179,-34,17,-1,-1
22,-72,3,161,-31,20,-1,-1
22,-65,0,170,-34,21,-1,-1
30,-63,-3,172,-38,16,-1,0
20,-69,0,176,-37,19,-1,-1
19,-56,0,177,-38,16,-1,-1
14,-62,-2,165,-40,11,-1,-1
19,-71,-4,166,-46,20,0,-1
22,-65,-1,187,-34,15,-1,-1
18,-70,-5,168,-44,13,-1,-1
18,-71,-1,172,-41,14,-1,-1
19,-67,-7,162,-41,20,-1,-1
23,-71,-5,178,-32,14,-1,-1
22,-67,-2,176,-44,18,-1,-1
16,-71,-3,172,-36,18,-1,-1
23,-68,3,171,-35,15,-1,-1
16,-61,2,185,-43,20,-1,-1
23,-74,-6,172,-41,11,-1,-1
19,-73,-4,169,-40,18,-1,-1
22,-72,-5,182,-41,11,-1,-1
17,-64,3,172,-32,19,-1,-1
24,-71,3,175,-33,22,-1,-1
28,-59,4,171,-28,21,-1,-1
20,-60,1,174,-35,21,-1,-1
21,-67,5,173,-41,20,-1,-1
27,-66,-1,179,-41,18,-1,-1
22,-69,-6,163,-42,14,-1,-1
19,-76,-7,183,-55,15,-1,-1
16,-80,-11,167,-45,20,-1,-1
21,-68,-6,166,-41,16,-1,-1
17,-65,3,189,-30,29,-1,-1
25,-59,1,158,-37,24,-1,-1
18,-71,-7,176,-48,16,-1,-1
17,-85,-12,169,-48,19,-1,-1
16,-86,-12,159,-39,13,-1,-1
18,-85,-4,172,-36,21,-1,-1
22,-70,5,172,-30,19,-1,-1
20,-70,-2,173,-40,17,-1,-1
19,-77,-4,171,-35,17,-1,-1
17,-76,-1,167,-45,14,-1,-1
17,-82,-7,177,-42,15,-1,-1
20,-75,-5,161,-43,11,-1,-1
24,-75,1,177,-43,13,-1,-1
19,-63,1,175,-33,20,-1,-1
28,-67,9,181,-28,22,-1,-1
19,-74,4,160,-41,11,-1,-1
20,-75,-7,171,-40,18,-1,-1
17,-73,-11,174,-57,12,-1,-1
10,-71,-2,164,-24,21,-1,-1
22,-68,2,170,-39,21,-1,-1
25,-61,8,165,-34,25,-1,-1
15,-72,-9,177,-40,11,-1,-1
12,-79,-12,162,-56,14,0,-1
15,-74,-12,175,-45,17,-1,-1
14,-66,-6,176,-38,14,-1,-1
24,-61,8,171,-38,23,-1,-1
18,-55,-2,166,-36,22,-1,-1
20,-66,-2,179,-46,21,-1,-1
18,-74,-14,162,-47,14,-1,-1
18,-73,-9,175,-42,20,-1,-1
18,-69,-3,167,-27,20,-1,-1
24,-62,3,177,-40,21,-1,-1
23,-61,-3,176,-39,18,-1,-1
19,-61,-9,167,-42,20,-1,-1
14,-72,-3,170,-48,20,-1,-1
16,-63,-4,172,-34,15,-1,-1
19,-66,-2,167,-41,14,-1,-1
17,-57,-3,175,-42,12,-1,0
25,-51,-2,173,-31,17,-1,-1
19,-64,1,168,-43,17,-1,-1
21,-71,3,169,-33,15,-1,-1
17,-64,-1,176,-49,14,-1,-1
21,-69,-7,164,-48,12,-1,-1
17,-69,-9,161,-39,16,-1,-1
24,-60,3,179,-37,17,-1,-1
19,-56,4,180,-34,18,-1,-1
24,-61,11,178,-35,20,-1,-1
21,-76,0,174,-37,8,-1,-1
18,-81,-6,172,-54,12,-1,-1
20,-87,-9,179,-37,15,-1,-1
21,-74,-5,174,-32,21,-1,-1
22,-69,8,179,-28,23,-1,-1
28,-55,3,183,-33,22,-1,-1
20,-81,-3,171,-49,20,-1,-1
12,-80,-12,170,-43,23,-1,-1
20,-87,-10,170,-47,22,-1,-1
16,-74,-1,168,-43,19,-1,-1
22,-65,4,182,-26,22,-1,-1
22,-77,3,176,-39,26,-1,-1
17,-74,-2,169,-40,16,-1,-1
17,-72,-5,173,-44,16,-1,-1
19,-74,-2,173,-49,17,-1,-1
18,-69,-4,172,-38,24,-1,-1
20,-70,-4,175,-41,19,-1,-1
28,-71,0,168,-36,19,-1,-1
19,-75,-4,170,-37,16,-1,-1
22,-75,1,173,-37,19,-1,-1
18,-72,-6,182,-40,12,-1,-1
19,-69,-3,164,-49,16,-1,-1
18,-80,-10,181,-31,22,-1,-1
28,-71,2,168,-41,28,-1,-1
23,-68,-1,177,-27,19,-1,-1
23,-64,3,174,-38,23,-1,-1
22,-69,2,176,-37,24,-1,-1
23,-78,-5,161,-42,14,-1,-1
15,-78,-8,178,-38,14,-1,-1
