LMS
0
0
6
14
4
1
0
504
39
516
35
500
41
506
34
497
22
505
35
501
39
502
26
499
38
505
32
504
40
520
38
510
44
509
29
513
40
509
33
493
39
507
33
506
37
516
45
496
32
507
54
522
39
506
67
515
60
515
61
500
39
516
35
503
40
509
41
508
26
509
17
494
18
499
5
502
12
512
11
492
12
511
5
480
7
504
4
517
26
519
20
521
26
511
23
505
21
495
22
502
33
488
12
503
41
508
25
497
28
520
37
527
20
526
32
545
28
520
30
498
23
513
37
504
38
496
37
513
27
486
42
473
26
478
37
501
56
507
54
507
48
505
48
495
47
514
38
496
51
483
45
506
52
495
40
516
40
504
26
517
43
520
39
525
39
504
33
503
32
506
38
522
31
525
40
520
50
516
46
501
28
509
36
496
28
497
33
499
33
493
36
502
33
499
37
494
24
497
37
497
39
510
48
505
38
496
39
497
39
491
46
499
49
513
60
516
101
513
115
520
124
514
110
512
90
520
78
550
55
554
39
523
11
503
-12
480
-31
490
-38
482
-40
466
-48
469
-51
486
-42
493
-42
515
-29
513
-18
497
-12
503
-9
490
-4
486
-3
506
13
511
24
523
26
524
24
509
17
496
19
500
13
513
32
529
41
530
40
509
26
502
23
507
43
522
46
518
48
523
51
518
60
511
58
515
64
508
63
519
63
496
66
515
74
522
72
509
65
502
70
497
63
513
74
523
70
538
71
517
41
510
43
510
40
522
52
526
50
507
36
497
47
479
34
497
46
482
55
492
49
474
47
455
45
457
41
476
40
481
39
541
44
564
38
537
36
555
37
536
29
534
35
535
35
509
38
531
29
531
17
508
18
503
27
511
28
511
28
503
23
474
10
471
35
480
57
489
93
497
106
500
80
473
79
489
62
469
57
514
38
518
36
517
16
515
2
525
-4
502
0
520
2
523
20
489
36
513
26
501
8
495
12
503
-10
499
-5
495
-14
509
-21
502
-27
507
-26
502
-21
498
-2
502
22
497
46
521
51
518
47
525
46
539
50
547
65
545
85
527
104
508
70
494
40
491
32
491
23
505
23
491
24
492
35
503
34
496
39
506
32
504
24
511
10
510
-3
518
-8
526
-19
514
-16
504
-46
508
-18
500
3
517
12
515
20
509
14
504
23
503
21
513
25
544
13
558
10
560
27
543
36
499
50
490
55
458
50
444
50
438
54
452
64
454
68
448
58
438
49
443
72
453
62
500
58
514
56
539
63
549
61
528
68
530
72
533
83
528
60
497
53
501
50
506
66
520
50
513
60
510
38
486
33
503
34
493
43
515
53
536
62
520
46
509
42
486
20
489
20
498
44
523
58
532
76
531
80
522
60
512
51
520
38
517
28
516
15
521
-7
501
-42
491
-56
498
-49
503
-40
523
-39
511
-38
499
-29
495
-29
503
-13
484
19
512
57
497
81
502
85
486
92
478
94
495
90
495
87
511
79
504
74
509
60
499
43
495
15
492
-3
491
-1
495
3
520
-3
508
8
501
14
508
12
487
29
511
23
508
28
527
25
512
5
518
-4
502
-4
510
1
532
2
510
15
522
15
535
12
488
-5
514
-6
498
3
519
8
517
10
511
13
505
14
517
17
506
34
500
30
496
29
488
34
495
43
516
49
506
76
503
71
503
70
492
63
482
71
494
74
500
83
508
75
514
80
489
59
497
61
491
54
494
54
505
38
536
33
535
42
544
37
547
23
508
17
510
19
488
34
516
47
486
51
489
55
496
51
482
45
491
55
490
49
520
44
509
41
501
26
503
41
521
54
532
45
523
39
501
34
507
36
487
23
504
49
505
43
510
48
505
44
492
41
491
30
483
21
496
18
482
25
500
18
495
17
506
18
481
7
499
14
494
10
513
6
497
7
509
1
502
2
500
15
510
4
506
9
504
15
496
24
493
25
528
43
506
32
490
36
507
37
506
53
512
58
533
59
512
58
493
46
513
47
482
50
510
41
537
49
547
38
530
27
521
31
519
31
522
37
511
20
507
21
511
20
515
27
511
20
507
24
485
9
490
23
492
31
487
44
503
33
500
35
504
50
497
36
503
49
486
49
517
45
508
54
514
40
516
55
519
41
513
40
509
30
485
31
496
37
499
37
494
39
496
39
501
41
509
39
497
38
498
32
488
33
505
40
503
35
508
35
499
30
503
24
496
17
493
25
493
22
515
19
499
20
500
24
499
35
513
36
525
43
503
28
517
35
514
30
504
43
514
44
519
40
516
36
503
33
500
33
501
27
509
36
487
26
511
29
504
28
497
34
503
36
511
30
507
31
502
28
509
36
510
24
505
36
504
27
496
26
495
32
507
32
520
37
504
30
504
30
510
26
496
30
498
33
511
37
516
32
514
40
505
32
490
31
518
46
514
38
510
39
516
43
521
39
518
47
521
38
506
38
513
37
502
44
502
44
497
31
505
29
490
25
506
33
497
33
501
31
496
16
489
22
492
29
503
37
517
53
521
44
514
38
502
41
501
49
506
42
515
36
499
26
510
47
511
77
497
117
489
143
483
159
499
144
495
125
511
76
493
35
507
3
509
-37
499
-54
529
-61
529
-66
531
-58
506
-74
506
-61
505
-45
509
-31
508
-25
491
-31
491
-26
493
-6
487
-9
495
-1
491
4
501
14
496
9
473
34
495
26
489
31
496
38
499
31
486
38
501
54
494
84
512
68
509
71
514
85
517
66
514
60
495
66
507
63
511
65
519
62
513
58
505
47
498
42
488
54
501
52
500
57
516
55
497
31
493
25
499
30
521
61
541
56
531
45
500
35
500
38
494
32
515
45
512
58
494
62
520
39
490
83
499
128
498
113
524
91
513
48
496
40
480
52
479
70
485
57
501
43
510
32
513
14
505
-23
501
-42
505
-43
512
-62
519
-56
529
-61
523
-70
522
-90
529
-102
520
-97
525
-97
533
-82
501
-63
522
-49
561
-16
528
-8
488
0
451
20
449
30
439
46
457
46
457
42
472
47
483
52
513
65
542
64
528
58
503
76
494
76
509
92
499
91
487
79
472
77
473
73
493
94
515
83
496
77
491
70
488
72
489
65
504
60
511
55
493
50
509
45
508
50
529
51
527
44
528
39
507
32
518
26
499
37
523
35
531
30
525
30
511
23
525
17
505
24
506
27
513
32
518
28
516
33
515
21
506
28
530
12
541
18
541
28
531
25
524
24
513
7
486
13
508
16
506
18
507
18
493
19
482
13
465
22
459
27
457
26
446
39
450
67
418
120
441
184
440
300
479
287
518
222
555
143
555
78
555
12
552
-44
549
-70
531
-80
541
-87
509
-95
504
-87
500
-62
473
-42
489
-43
463
-28
482
-6
487
44
490
41
472
8
469
12
490
27
524
44
552
23
531
-3
518
-21
485
-41
495
-39
489
-66
492
-66
498
-75
495
-72
485
-53
458
-44
483
-8
513
31
519
58
534
44
533
19
543
10
555
6
564
29
567
16
528
-29
524
-51
571
-51
541
-67
520
-38
478
-21
457
19
430
26
417
28
409
45
412
68
448
93
481
100
496
91
513
85
487
68
462
66
462
88
478
117
513
140
517
130
514
124
513
119
533
116
530
124
534
125
535
125
527
102
520
90
489
68
507
78
508
60
499
56
471
33
480
34
465
32
463
29
486
17
498
32
519
31
528
19
527
10
522
4
529
-3
514
-12
519
-14
503
-4
490
1
506
19
501
24
509
27
513
31
511
33
535
38
522
26
520
22
525
28
523
23
529
22
502
10
499
4
492
14
487
10
488
4
486
3
480
6
476
-7
478
10
492
10
496
7
482
19
497
101
489
119
508
80
506
56
511
21
501
-17
489
-31
499
-32
495
-35
503
-32
504
-19
519
-19
512
-10
511
-23
522
-27
503
-35
503
-29
520
-23
497
-8
503
30
508
65
514
56
486
27
481
12
485
-4
500
3
498
-20
502
-12
500
-7
502
9
502
17
490
43
513
50
544
68
560
75
550
83
515
95
497
102
486
104
552
97
575
86
557
76
501
58
474
68
451
107
430
109
397
107
401
99
408
87
436
70
458
28
477
-1
506
10
524
45
538
38
528
-1
539
-28
546
-39
560
-37
547
-43
551
-55
534
-73
507
-92
510
-101
490
-96
502
-108
527
-98
542
-69
518
-41
493
-24
459
11
441
35
449
62
449
69
468
78
472
90
478
121
472
146
483
180
503
202
514
202
532
180
536
166
533
152
525
128
550
122
532
114
533
101
511
67
502
38
499
4
494
-23
483
-29
485
-27
482
-37
485
-53
484
-72
493
-73
496
-55
494
-50
492
-65
500
-76
504
-81
525
-87
559
-91
566
-91
559
-78
528
-61
505
-30
540
-5
605
23
559
40
494
78
401
81
359
97
352
92
395
110
470
115
472
121
466
127
472
116
495
103
525
89
542
87
554
91
556
83
547
62
529
65
518
48
505
40
510
44
505
34
511
43
503
28
502
2
486
-20
499
-14
494
-14
511
-8
502
6
496
-13
468
-14
471
0
493
26
506
44
504
26
480
23
474
-2
476
3
490
15
523
67
517
117
479
160
455
172
467
158
523
123
543
107
520
68
531
41
534
4
540
-23
526
-40
516
-40
521
-11
537
-11
517
-30
507
-56
494
-86
506
-79
521
-63
539
-69
530
-76
514
-74
504
-67
484
-54
455
-35
484
-21
510
-19
542
-31
537
-38
505
-40
454
-18
423
-22
420
-6
429
-9
472
0
520
17
547
35
517
50
542
68
552
99
550
102
537
108
514
95
579
93
580
105
537
104
507
110
481
127
459
129
422
112
418
133
457
193
487
217
491
240
492
294
487
316
489
299
485
268
499
222
492
162
506
70
485
-41
488
-95
497
-93
487
-67
495
-78
502
-111
507
-132
507
-163
503
-169
504
-185
519
-178
525
-201
533
-171
520
-98
520
-59
518
-62
520
-108
512
-41
501
5
521
-31
528
-83
537
-103
535
-114
503
-102
471
-96
438
-94
412
-73
433
-55
465
-21
467
12
489
55
516
86
517
119
525
134
508
154
505
168
521
167
551
173
584
173
581
152
606
136
567
148
571
161
559
180
535
172
523
156
494
147
488
162
473
198
464
210
475
192
475
161
470
105
481
53
476
-2
494
-31
484
-32
444
-26
440
-13
481
-17
580
31
577
58
534
52
489
46
433
23
391
9
372
-16
383
-31
390
-37
393
-54
411
-57
434
-60
513
-34
577
26
613
49
614
29
600
-6
582
-26
586
-22
560
-29
544
-79
527
-139
508
-148
521
-107
533
-81
532
-67
525
-78
515
-77
489
-92
490
-82
501
-57
515
-54
506
-60
514
-37
479
49
505
148
496
129
505
83
516
72
515
53
524
40
514
26
499
24
506
28
524
35
518
39
511
19
493
1
477
11
494
42
498
55
498
65
503
66
482
77
478
67
473
72
494
67
496
78
485
64
492
54
484
48
478
56
494
72
519
87
498
78
506
84
505
74
498
78
511
83
510
80
513
78
520
65
501
69
489
84
489
125
500
120
502
137
513
131
505
110
506
103
502
78
501
61
512
51
518
40
514
13
511
21
507
0
511
-20
518
-52
507
-68
502
-80
497
-112
505
-104
501
-105
512
-86
507
-65
531
-38
502
-21
503
-13
501
-4
503
23
523
39
518
35
511
30
509
48
500
68
502
57
518
64
503
48
510
46
504
32
494
31
496
35
506
44
529
49
516
37
499
15
491
13
505
22
505
39
519
53
512
48
502
43
499
39
483
44
502
69
503
93
513
128
513
152
502
163
516
176
505
167
523
156
548
146
549
155
496
132
464
85
512
62
524
50
488
16
469
-33
504
-67
525
-44
481
-67
452
-97
422
-101
439
-90
413
-82
444
-75
432
-67
450
-61
482
-62
519
-96
537
-126
563
-151
587
-164
598
-145
601
-137
578
-121
591
-105
579
-93
578
-76
545
-34
525
-16
526
19
508
65
512
102
496
128
498
146
489
179
510
221
506
286
526
312
520
318
515
287
491
248
497
219
501
185
512
146
504
94
490
63
494
40
486
16
497
-20
500
-48
495
-92
467
-118
471
-119
475
-125
481
-102
484
-101
487
-90
484
-63
449
-45
475
-27
482
5
508
26
490
19
497
16
483
23
483
33
493
42
500
55
524
68
511
56
512
51
504
56
511
54
509
67
523
63
528
63
535
51
525
66
530
70
536
87
526
74
528
79
500
58
486
48
492
57
509
56
526
66
534
76
526
85
514
84
490
98
467
168
492
230
498
271
469
273
464
244
451
204
448
147
460
99
468
48
506
-21
530
-87
538
-121
562
-147
558
-183
568
-193
560
-224
541
-257
539
-265
516
-241
503
-222
509
-211
506
-191
505
-183
507
-175
494
-155
494
-136
501
-118
505
-86
516
-28
524
-2
523
23
498
89
538
123
589
131
652
143
602
135
529
126
459
117
477
103
493
124
496
124
482
103
445
63
361
50
342
48
302
66
317
66
387
67
459
86
462
100
459
139
488
226
533
289
598
327
609
313
609
275
614
219
580
150
548
103
533
63
546
42
558
11
547
-40
516
-83
483
-109
508
-125
509
-128
512
-162
504
-182
479
-179
474
-131
483
-83
484
-57
501
-59
481
-30
499
-9
507
16
505
52
502
94
509
140
503
195
504
187
509
165
504
143
519
120
492
102
513
80
499
48
493
-9
491
-15
483
-24
499
-59
512
-86
494
-82
509
-56
492
-24
486
-6
503
17
512
22
522
23
515
15
521
19
521
-2
515
-4
504
-3
511
-8
518
-4
523
12
512
15
531
35
523
48
518
50
506
66
490
77
499
87
484
82
514
77
564
90
566
78
519
75
491
80
458
73
448
59
422
48
424
19
430
18
439
21
461
61
493
77
514
78
518
82
526
125
525
208
530
193
519
139
515
91
519
74
522
42
509
12
495
-2
500
-10
505
-32
501
-53
495
-75
496
-110
500
-126
517
-133
508
-110
522
-95
518
-81
504
-63
502
-41
524
-14
529
-9
518
13
534
31
513
66
505
69
497
88
512
113
514
131
514
113
511
69
497
39
492
18
490
8
493
13
489
0
493
-11
494
-23
484
-33
483
-24
509
-9
539
7
569
11
542
-3
509
6
518
16
518
47
536
55
537
54
520
43
514
34
502
40
499
67
532
87
539
93
518
74
508
59
502
62
494
85
514
88
528
98
534
81
505
60
487
33
488
38
480
48
503
65
498
54
501
42
482
26
474
29
505
33
503
36
509
39
496
32
500
38
503
21
494
23
520
24
489
26
508
32
493
35
507
33
491
29
504
18
495
17
491
26
500
35
503
28
511
27
506
23
528
31
517
35
526
27
519
21
515
24
505
22
495
32
499
12
501
7
498
9
505
14
503
18
504
11
505
16
502
24
513
25
512
14
529
29
511
25
522
27
526
34
522
31
513
21
511
14
508
26
526
26
511
22
523
18
504
16
500
17
493
21
517
35
514
29
508
22
494
7
502
10
489
20
503
23
512
35
514
27
518
29
501
27
497
29
522
40
512
43
516
38
516
30
506
33
498
23
508
27
516
50
508
36
498
17
474
6
494
7
480
27
498
39
511
37
500
27
496
20
499
34
504
27
505
36
503
39
513
34
504
33
509
42
519
42
514
34
501
26
487
27
507
31
504
32
502
24
492
27
500
29
496
32
507
28
499
12
499
25
495
33
516
28
514
35
485
22
503
20
478
17
500
33
517
40
512
34
511
34
494
29
507
25
507
31
499
29
502
23
500
24
500
27
506
21
498
22
492
12
497
29
508
30
517
36
521
25
510
17
501
21
492
35
517
42
523
38
500
33
504
26
507
23
491
26
509
38
509
30
502
37
511
22
518
31
499
28
518
25
498
27
513
34
504
35
519
36
497
29
515
27
507
27
512
40
524
40
515
36
505
26
503
21
500
37
517
34
515
35
517
28
505
14
502
24
500
36
510
34
517
32
507
28
509
20
499
18
497
25
502
23
512
35
511
39
513
28
517
22
506
31
518
27
515
40
527
45
530
41
507
19
500
14
490
17
500
23
493
27
513
28
493
14
483
13
490
12
495
31
512
33
531
45
513
29
514
19
494
22
496
13
498
31
505
25
516
27
517
33
507
26
496
15
487
25
500
37
523
38
527
46
520
27
498
14
497
24
501
35
523
55
531
41
510
24
495
9
483
2
493
34
518
42
530
52
529
41
506
12
492
10
490
15
497
35
515
45
521
37
506
28
484
13
497
20
512
29
516
34
519
39
530
45
510
35
507
41
518
26
493
30
514
35
520
32
526
44
513
13
496
17
480
15
502
29
508
36
528
36
506
25
505
24
494
32
511
37
512
42
513
41
516
30
510
39
516
28
508
37
509
28
513
32
512
34
507
37
515
37
502
26
513
32
505
30
521
25
500
41
510
29
513
31
506
17
514
27
510
33
503
20
515
21
490
22
500
37
513
39
516
38
519
31
520
33
513
32
512
39
515
41
511
26
495
25
496
22
490
24
514
49
521
51
514
36
513
19
491
26
507
31
525
42
510
40
513
32
504
19
489
20
494
20
505
36
497
25
528
25
509
30
498
31
508
33
509
37
518
33
502
41
515
34
501
21
501
31
498
22
505
33
518
37
513
45
514
28
520
30
492
28
518
45
518
49
522
43
514
32
507
21
493
26
498
31
507
30
526
33
504
28
501
25
500
23
505
29
503
29
501
28
509
31
518
37
515
33
506
25
496
28
505
35
521
52
530
45
533
45
509
23
501
22
494
32
507
34
510
44
514
36
506
27
505
22
490
17
484
22
502
38
507
37
498
34
502
14
490
14
487
20
508
28
516
46
539
49
512
40
508
21
509
27
502
23
522
40
518
46
512
36
503
23
499
31
510
48
520
32
510
30
502
9
493
14
488
16
493
25
505
35
514
30
512
34
495
13
499
27
507
30
508
36
512
33
514
34
517
34
512
34
529
36
509
20
497
29
522
24
477
31
505
35
513
32
507
23
488
22
510
24
506
37
512
36
510
37
500
19
505
23
502
25
513
37
519
28
502
19
495
25
501
21
504
27
510
31
512
26
498
37
521
44
510
36
507
16
488
19
493
20
503
24
510
32
503
22
506
28
503
29
501
18
521
47
520
34
525
40
520
28
513
22
501
29
491
16
494
21
510
24
509
24
507
29
504
18
491
2
485
18
495
24
495
42
528
30
509
23
502
20
492
32
514
41
514
49
524
28
506
27
493
22
508
31
526
40
511
29
518
27
494
24
493
27
506
32
514
38
510
30
514
34
506
36
520
28
500
31
509
20
504
29
508
27
511
36
510
26
498
31
507
34
513
34
507
33
496
32
510
22
517
28
514
38
511
25
513
35
504
26
509
33
502
25
508
34
509
29
510
29
509
25
509
42
509
31
517
37
508
36
505
29
506
27
509
35
512
26
505
21
489
24
500
30
511
28
519
36
522
35
520
34
508
28
513
27
496
30
516
42
519
42
523
45
533
30
507
15
502
14
504
23
511
48
522
33
505
17
485
21
480
15
500
31
507
29
506
37
501
25
491
17
494
17
499
28
519
35
509
39
502
30
490
22
502
18
507
32
513
43
529
44
525
42
501
22
491
11
495
26
498
32
520
36
521
44
519
36
506
21
501
19
500
38
506
37
514
30
508
30
507
15
501
24
505
23
504
30
507
28
499
35
507
27
500
24
504
26
509
31
515
43
517
42
522
47
513
33
515
30
505
30
515
33
526
43
515
38
508
39
508
22
494
14
498
27
519
35
510
27
519
24
512
27
494
21
512
29
489
28
514
27
509
27
493
16
515
37
503
33
507
27
517
26
513
35
514
34
532
38
527
24
501
25
505
26
498
32
503
38
516
30
497
23
500
20
491
9
486
24
499
29
512
34
503
29
507
17
500
29
510
26
515
26
499
33
502
24
493
36
504
27
516
40
513
39
503
31
498
16
496
33
510
34
507
38
509
35
507
27
511
32
514
40
510
34
519
38
501
33
500
31
509
29
513
32
513
30
516
23
500
25
500
31
497
24
503
30
500
18
505
25
517
43
517
42
513
45
502
31
503
33
505
25
507
30
510
25
506
29
511
22
501
30
509
39
508
34
512
23
508
28
500
26
515
36
503
38
516
30
495
20
502
26
508
25
502
24
513
30
503
31
520
17
500
19
498
23
502
26
507
28
518
25
507
40
509
44
518
31
494
32
500
21
507
31
506
39
517
28
510
26
505
30
514
31
501
24
500
19
500
33
513
18
501
34
517
29
513
30
508
39
517
33
487
28
503
30
505
29
516
20
493
22
492
23
491
15
497
22
507
15
494
27
506
26
501
33
518
27
509
22
500
20
493
22
499
26
512
27
521
44
519
30
521
14
485
12
491
14
503
40
511
43
520
39
518
24
497
19
491
21
504
42
513
33
510
33
501
26
497
28
513
16
503
33
524
27
512
33
505
39
519
41
512
24
500
14
497
22
523
36
520
38
512
43
500
21
491
10
498
25
485
28
507
34
510
28
509
18
488
25
503
19
512
41
505
31
512
30
506
29
498
19
517
20
501
29
498
31
511
45
512
39
505
20
499
27
502
19
499
36
504
38
512
32
504
25
495
14
498
22
510
24
509
31
510
38
513
33
513
24
514
17
497
24
506
22
510
21
493
29
514
33
507
35
504
10
490
20
504
25
515
26
522
27
518
23
492
16
497
23
488
23
516
22
510
35
501
36
514
31
503
30
501
28
500
31
520
48
501
30
518
32
505
20
489
4
487
32
504
26
513
42
516
37
507
21
500
12
500
16
495
31
515
39
519
28
523
33
496
24
512
14
485
27
507
37
511
38
519
34
499
20
495
16
494
23
502
26
501
30
516
46
510
24
493
18
496
17
502
34
505
43
525
44
517
39
523
27
495
13
486
28
497
33
515
44
514
42
511
28
509
21
501
28
498
41
508
36
521
47
518
32
511
17
490
16
491
23
501
40
522
44
509
41
513
19
493
21
502
18
504
25
521
49
519
41
504
37
512
23
498
32
508
24
504
31
514
31
505
29
508
21
503
29
489
35
521
37
510
38
511
31
498
22
503
24
494
34
512
46
515
45
518
41
514
27
504
18
494
8
486
17
489
35
507
34
508
34
511
18
492
23
500
29
509
35
515
31
506
23
503
23
508
23
494
25
512
35
524
32
510
34
497
18
508
26
506
25
478
32
511
31
498
36
525
40
512
18
503
21
496
13
489
20
486
22
504
35
505
30
521
29
497
16
489
14
488
22
495
26
513
50
524
39
514
30
511
22
501
18
489
24
503
36
508
30
504
37
512
18
504
30
509
37
517
33
509
33
509
33
512
31
507
24
496
24
506
30
513
40
513
33
498
20
497
17
499
24
501
20
507
23
509
34
509
35
503
29
498
16
497
23
505
30
515
44
513
28
516
21
494
8
483
34
498
23
514
32
521
30
511
15
499
29
502
17
504
27
500
32
503
35
508
37
503
26
512
21
499
31
502
22
502
29
512
33
514
36
512
29
514
15
490
26
505
22
499
29
490
22
495
20
498
31
500
21
504
24
502
21
505
23
507
30
500
24
500
36
511
36
519
37
526
33
506
26
510
28
509
19
506
20
500
22
490
22
504
20
501
25
506
21
508
16
479
16
490
19
498
24
511
37
510
31
504
18
504
16
501
32
518
43
519
34
504
27
498
16
496
22
505
32
512
42
519
34
494
31
507
31
502
32
506
28
498
23
509
29
510
23
519
42
518
33
509
20
509
17
504
24
503
30
501
25
520
26
497
22
490
28
505
36
519
36
521
32
507
26
508
19
491
20
508
32
498
33
507
33
502
20
495
23
512
29
506
24
514
30
505
22
495
27
522
34
510
21
502
19
501
13
500
24
510
32
498
24
505
21
482
8
488
7
499
19
516
27
516
41
510
24
503
22
493
24
505
22
517
24
510
30
505
32
511
35
495
29
507
16
489
11
484
21
496
33
529
34
518
21
493
19
491
15
493
20
506
41
522
41
522
32
502
12
501
8
494
23
494
25
504
33
510
30
515
31
511
32
516
24
507
22
504
19
508
39
508
34
516
30
519
22
492
6
491
1
482
15
496
35
509
29
507
17
492
8
491
12
501
13
511
27
525
41
527
43
518
29
501
21
502
15
503
27
513
33
528
24
498
15
504
18
494
23
488
23
513
29
525
30
539
43
528
29
508
30
503
23
509
31
514
35
516
32
513
24
499
18
497
17
499
21
493
27
487
25
511
31
491
25
516
33
516
27
513
26
506
27
500
31
511
16
494
16
500
4
491
12
493
20
501
13
482
16
489
12
495
29
523
39
508
46
517
22
514
13
495
28
501
24
500
28
499
28
512
25
505
14
505
23
495
13
487
20
496
27
511
38
519
33
510
22
510
13
506
20
486
21
508
24
515
33
504
11
493
21
508
16
500
23
500
25
522
26
506
21
504
30
517
36
516
28
508
23
512
36
514
28
515
20
492
15
480
16
494
15
491
15
497
22
492
14
501
16
483
7
490
26
504
23
514
39
512
15
511
22
499
20
500
18
489
34
515
34
500
35
512
15
482
7
480
5
498
31
513
43
518
35
509
34
503
22
509
12
501
26
508
27
516
26
510
34
501
27
495
17
499
17
511
24
509
27
500
29
510
34
492
29
510
17
495
25
513
30
512
34
518
33
500
14
501
21
492
23
489
34
517
29
505
29
511
26
506
27
498
11
509
23
487
26
505
24
514
16
512
35
497
33
514
23
490
23
503
26
490
20
493
25
511
29
501
15
512
29
497
17
513
27
483
24
509
31
508
35
497
25
487
26
490
16
505
25
503
30
504
30
502
32
513
33
518
19
504
19
498
21
493
30
505
29
494
17
499
27
493
14
485
16
502
22
502
9
499
25
494
18
496
10
497
20
502
23
513
28
500
21
518
28
495
35
500
37
516
32
493
25
506
29
507
21
504
27
496
18
499
30
500
39
505
22
501
25
503
25
509
39
508
29
509
31
504
41
520
23
501
25
494
13
500
24
512
34
526
42
513
25
513
35
498
24
491
38
506
37
520
40
516
38
521
34
506
29
498
32
502
19
506
23
495
9
486
18
503
20
498
23
490
20
495
18
490
16
498
23
508
32
512
29
512
38
507
23
503
31
500
37
511
28
511
31
507
14
498
26
502
20
502
29
513
27
508
27
506
27
505
35
506
28
500
26
501
30
501
14
495
38
491
12
496
27
497
14
494
8
492
21
498
14
497
19
481
22
493
11
492
32
502
31
516
32
520
32
500
29
509
28
526
39
516
38
530
43
529
32
511
19
509
24
503
27
498
32
490
22
492
15
491
10
497
24
496
16
505
30
506
28
484
12
499
19
517
11
492
29
504
13
499
34
509
27
510
22
505
29
502
24
509
32
514
35
520
37
502
19
487
12
480
10
493
20
500
33
512
29
510
33
510
24
501
21
500
24
500
29
509
40
521
30
508
30
502
21
507
11
489
25
498
21
489
31
499
28
500
13
498
19
493
21
494
21
502
22
504
25
502
26
503
25
504
22
501
24
506
25
503
25
507
26
490
15
490
23
493
16
495
21
505
22
504
18
492
16
483
10
479
14
493
25
501
26
504
21
516
20
490
21
496
13
500
30
505
26
516
40
525
41
514
24
510
27
496
11
483
20
488
14
497
25
502
34
507
20
499
10
492
3
478
-1
485
23
506
39
514
31
521
24
499
19
502
21
505
26
503
35
518
40
512
27
498
14
490
12
500
10
503
35
496
25
510
28
494
19
496
15
496
13
496
23
512
33
516
43
518
33
501
18
489
25
497
16
503
28
506
29
511
27
502
19
501
23
493
13
491
25
509
38
525
33
519
18
496
10
478
14
493
29
490
27
511
38
507
27
509
26
498
23
506
29
503
24
494
27
514
42
505
32
508
20
504
22
496
22
496
26
500
21
501
29
508
31
506
18
497
9
488
15
499
17
506
33
514
33
510
25
505
25
495
14
504
23
500
30
515
29
518
33
502
24
491
20
489
14
494
27
503
15
509
38
508
34
510
22
497
24
495
19
507
24
507
32
522
27
507
20
505
17
500
17
512
21
505
32
515
26
510
15
492
13
482
8
496
15
490
28
488
26
492
18
501
20
508
15
505
14
496
23
512
29
507
26
515
33
512
37
514
23
502
23
497
14
503
28
515
45
513
34
501
20
487
15
485
0
492
17
497
21
506
33
500
18
488
7
493
11
489
17
501
24
508
36
531
36
509
30
500
16
489
21
495
29
513
35
511
36
524
24
513
17
495
14
493
15
497
17
509
27
504
26
496
18
513
18
496
22
484
26
514
33
487
36
513
25
507
33
499
14
490
22
490
23
498
29
509
27
498
22
489
10
481
14
500
22
509
37
503
33
509
34
501
30
506
29
515
39
518
38
516
36
510
30
496
18
491
17
495
25
502
17
502
20
493
26
500
21
477
23
501
8
490
22
511
33
517
22
518
24
511
17
515
18
486
26
496
16
495
39
491
32
510
26
499
28
494
24
506
24
504
34
498
33
508
23
492
22
498
29
502
28
498
12
497
30
492
31
496
34
505
43
506
40
499
30
509
34
519
32
520
33
507
24
506
6
494
14
495
7
518
17
515
9
509
3
505
12
494
-3
495
1
490
8
506
7
507
17
501
18
505
20
491
13
480
17
482
21
498
23
505
25
518
30
526
26
514
27
514
27
509
25
513
24
515
38
516
23
517
29
497
29
498
22
504
31
514
28
515
37
530
31
532
44
525
33
512
34
509
38
497
33
495
34
501
45
504
33
504
41
503
28
503
33
497
29
495
31
504
34
497
29
503
31
495
23
495
28
496
22
499
29
505
29
511
25
487
19
505
24
514
38
530
27
527
27
514
13
500
24
500
13
514
29
520
43
509
25
506
18
487
14
483
19
491
11
501
36
509
28
509
23
493
17
491
14
489
7
492
16
490
29
493
26
501
29
504
23
506
27
504
25
509
37
519
44
516
31
511
2
504
16
498
17
503
29
521
33
517
27
505
12
500
5
506
12
514
26
516
45
518
41
508
29
498
30
477
25
491
13
486
24
488
18
477
30
475
17
477
24
504
17
549
17
555
21
550
30
534
39
528
21
534
38
534
33
527
47
537
33
526
32
492
17
493
15
488
9
494
18
485
16
509
10
499
-2
493
-5
494
-4
489
1
491
13
497
14
483
17
488
23
497
28
498
17
502
26
500
26
496
29
507
28
493
24
496
24
506
32
503
36
517
46
516
54
506
47
506
71
506
76
508
90
527
84
512
75
503
59
487
56
496
60
497
60
500
60
495
83
510
96
524
83
522
74
528
77
528
51
500
25
488
6
498
11
503
-12
495
-48
485
-70
490
-77
491
-63
499
-60
501
-55
512
-53
500
-47
514
-35
519
-22
525
-12
516
-30
499
-22
499
-25
508
-8
524
0
522
7
519
2
498
12
513
28
516
20
512
26
509
11
509
1
508
9
502
15
506
19
511
30
505
50
508
52
505
57
507
69
506
68
509
70
499
81
509
71
501
74
513
58
500
52
501
40
492
43
499
40
504
49
497
43
509
42
494
40
510
28
506
30
504
42
521
39
522
45
510
32
507
35
495
27
499
25
507
41
506
25
499
13
483
14
498
11
480
10
510
22
511
33
514
12
509
9
499
14
510
14
532
23
539
26
590
16
571
10
555
20
517
19
488
15
460
21
458
36
434
18
443
19
441
9
430
24
460
62
455
88
461
94
486
108
511
101
526
88
527
84
566
69
548
45
558
13
528
15
525
22
510
25
518
6
524
-6
521
-16
502
-31
488
-35
504
-30
491
-37
504
-48
526
-47
505
-71
505
-83
495
-95
505
-90
501
-67
504
-54
494
-61
492
-88
498
-99
487
-100
493
-76
483
-64
509
-35
498
-14
493
-7
475
3
478
34
480
50
495
81
523
88
541
102
554
92
544
94
531
101
533
104
525
114
503
100
487
92
473
85
473
89
470
100
476
97
487
102
481
117
491
111
511
115
501
103
519
88
544
70
534
47
514
28
511
13
504
6
509
23
510
34
510
57
501
77
497
62
474
47
482
32
499
24
506
10
519
-3
506
-34
504
-48
497
-61
499
-64
516
-43
520
-33
517
-35
514
-55
491
-53
510
-65
509
-36
516
-13
509
4
523
14
499
8
507
23
495
43
511
55
522
64
506
53
496
39
492
43
500
56
496
55
517
65
508
52
505
53
513
50
529
57
555
49
555
38
503
25
488
34
487
36
482
42
479
36
476
23
474
11
489
23
509
18
503
41
515
61
504
78
479
88
488
74
500
73
506
56
522
55
515
44
518
23
524
5
511
-1
517
0
517
-4
519
2
519
-4
523
-9
513
-26
500
-26
504
5
514
13
526
21
516
8
510
-1
501
8
494
16
511
52
520
56
545
53
509
28
483
0
490
-1
481
18
517
11
510
4
514
-5
501
-6
521
12
537
58
543
72
532
61
503
44
480
27
488
15
482
1
491
23
507
33
519
30
512
27
485
37
490
43
497
53
514
60
522
56
525
34
497
21
487
11
480
-14
493
-28
512
-43
505
-33
498
-42
489
-36
491
-21
493
-8
510
23
516
28
519
45
507
28
501
34
485
40
521
54
510
69
526
63
505
46
501
46
489
50
497
77
525
99
522
103
506
94
499
91
493
79
510
76
496
80
519
92
509
110
508
144
493
170
501
165
523
142
511
103
503
65
513
-3
518
-40
478
-74
497
-99
500
-106
506
-106
519
-110
506
-97
498
-73
498
-44
504
-13
512
-15
521
-3
513
-25
502
-41
493
-41
506
-27
523
-30
521
-27
507
-10
513
-1
493
9
478
17
517
16
509
36
505
24
486
24
502
3
502
4
517
21
511
26
520
25
497
23
492
28
495
35
494
43
504
39
511
42
506
38
510
44
501
37
499
54
502
59
513
57
515
69
505
106
520
152
517
167
526
184
513
173
546
162
522
137
527
86
505
37
497
36
497
37
495
11
510
-21
505
-42
500
-71
483
-77
488
-64
501
-52
505
-49
519
-50
505
-45
479
-63
506
-74
504
-64
509
-62
508
-49
516
-45
491
-36
504
-14
513
-7
525
3
513
8
512
28
513
38
513
48
505
38
509
64
518
66
501
73
502
69
489
66
474
68
491
77
495
89
508
76
495
71
501
68
538
63
565
64
558
50
537
55
509
43
513
47
500
51
492
41
511
35
509
41
505
31
508
35
511
38
515
42
517
41
517
36
519
25
513
26
504
8
496
19
520
16
505
0
510
8
504
-6
515
0
501
-2
499
-8
489
-6
484
-5
500
4
512
-7
509
-16
491
-16
495
-21
490
-3
501
4
501
5
506
12
500
15
498
31
491
37
497
47
505
52
501
39
491
33
487
29
495
31
500
40
509
46
509
44
499
29
490
22
477
21
498
28
503
29
515
35
511
28
499
32
513
42
523
39
513
37
508
30
497
39
517
36
511
35
513
33
495
21
489
34
507
58
507
126
517
187
522
142
518
109
506
76
494
57
504
33
511
11
505
-5
494
-31
496
-41
487
-41
512
-30
496
-22
501
-39
498
-54
505
-53
507
-54
511
-41
506
-45
498
-30
518
-26
501
-16
502
-8
505
-5
506
8
507
-4
511
5
498
7
498
22
520
29
510
33
507
41
510
54
496
71
514
71
507
75
509
76
504
67
514
67
507
70
512
64
522
62
498
47
512
54
505
55
517
61
518
47
511
44
517
40
507
50
522
43
502
32
504
38
509
34
499
34
511
38
503
23
504
14
498
18
490
28
504
29
512
21
508
28
512
22
517
19
508
19
505
18
499
26
513
32
513
30
503
14
497
12
491
9
495
31
512
31
521
34
513
9
489
3
499
5
498
18
523
22
505
23
509
10
494
16
493
13
515
24
508
35
520
27
513
24
508
9
502
16
499
24
520
24
498
31
529
30
511
10
500
14
488
10
493
25
515
31
515
23
498
18
511
22
489
12
512
30
503
15
511
33
522
22
518
26
514
18
505
31
512
19
506
27
507
25
510
15
500
23
495
11
501
16
490
21
503
26
503
30
502
21
511
23
514
25
529
23
510
20
516
35
514
24
512
38
521
26
509
38
504
69
508
145
526
160
507
138
495
153
484
135
468
91
470
59
496
43
477
32
498
-2
483
-8
527
-31
566
-24
578
-24
571
-61
542
-85
521
-91
501
-78
491
-52
472
-42
472
-23
461
-20
472
-8
503
-3
525
-8
539
-6
571
6
573
26
560
23
558
4
538
-6
509
-9
500
-19
476
-23
481
-18
466
-8
466
-3
458
4
486
-4
485
9
499
25
488
27
480
38
496
45
504
55
510
64
519
51
534
60
535
47
527
55
506
98
481
197
489
191
466
153
460
116
466
102
468
83
482
73
479
85
484
72
504
45
504
16
501
0
498
-17
509
-37
525
-37
535
-51
518
-55
514
-82
499
-78
515
-74
518
-48
536
-38
536
-48
531
-18
520
-19
543
10
537
22
544
32
526
33
535
46
535
51
520
50
519
57
530
68
520
73
524
69
520
63
522
74
514
60
515
73
500
76
528
75
523
64
509
53
507
55
502
49
496
54
501
55
497
51
498
51
520
39
492
33
508
31
525
30
517
39
520
16
501
9
484
15
494
5
485
23
490
16
491
9
483
10
484
10
489
7
498
15
496
19
506
18
507
22
496
11
499
11
488
4
499
13
514
22
507
15
515
14
519
13
494
16
504
10
514
31
528
37
516
34
509
35
498
49
503
60
520
78
511
67
513
75
517
59
492
81
518
102
544
108
542
111
540
99
523
72
535
40
495
9
498
-16
478
-31
496
-38
481
-38
496
-47
482
-53
493
-57
484
-60
504
-55
524
-40
508
-40
520
-48
508
-55
512
-49
500
-26
515
21
511
52
539
81
518
79
527
83
492
65
501
82
558
90
586
129
567
119
531
120
478
119
468
112
451
90
431
66
431
44
466
33
465
7
495
-23
493
-14
510
44
512
121
523
186
535
215
530
213
528
169
512
134
503
74
500
3
511
-39
516
-35
511
-50
516
-97
492
-135
509
-148
530
-124
509
-133
520
-142
509
-161
503
-140
508
-156
505
-141
497
-125
493
-101
479
-65
480
-51
472
-26
510
45
548
75
565
66
566
51
597
65
621
66
582
75
550
83
498
90
471
106
441
138
409
128
415
146
442
168
486
171
493
159
474
137
464
113
458
80
466
81
475
76
497
67
503
43
505
39
525
57
529
61
560
68
549
44
550
2
530
-50
515
-65
515
-92
519
-89
512
-84
519
-68
501
-73
488
-66
500
-42
502
-12
524
27
526
109
521
178
522
139
515
124
503
102
523
91
513
73
513
58
496
42
498
3
499
-4
490
-20
500
-35
507
-57
500
-58
500
-46
512
-29
500
0
512
8
520
30
549
30
554
21
522
2
509
13
494
40
502
38
472
37
477
36
473
38
453
45
491
48
494
46
474
58
468
65
471
87
485
92
494
88
500
79
511
57
519
33
501
11
505
-10
510
-15
515
-22
535
-28
547
-10
555
53
563
93
548
111
531
66
520
43
519
52
526
32
537
-2
502
-97
506
-126
502
-72
504
-17
526
-5
515
-6
515
-23
503
-5
491
29
503
63
507
70
505
65
483
56
485
35
473
11
493
0
490
-6
503
-3
505
-2
510
-15
500
-19
504
-38
503
-45
536
-37
536
-36
552
-47
527
-32
512
-20
511
13
541
42
562
67
535
60
486
72
475
54
525
66
561
82
570
100
532
91
481
68
464
54
447
42
411
44
431
71
456
82
457
87
479
87
486
101
482
121
500
147
536
157
546
138
534
101
530
67
524
52
531
38
543
54
525
69
525
107
506
125
508
122
505
109
511
87
513
64
514
38
505
28
502
17
501
33
503
27
506
69
505
103
510
46
517
8
512
-20
493
-37
500
-47
518
-83
543
-120
566
-170
557
-170
523
-171
480
-156
440
-158
445
-125
481
-79
562
-9
555
59
541
139
518
161
540
157
577
145
582
124
529
91
463
49
428
67
396
79
396
64
396
19
438
-30
458
-82
470
-98
499
-100
508
-95
533
-96
541
-41
598
53
579
122
528
188
492
221
467
207
452
157
509
89
575
11
581
-37
535
-77
510
-93
516
-85
537
-78
573
-58
546
-59
520
-17
491
21
472
44
450
80
448
96
464
124
475
145
478
179
498
220
495
248
507
248
503
215
506
155
489
101
466
32
466
-41
450
-64
461
-96
492
-161
517
-254
537
-291
495
-292
483
-310
490
-352
518
-342
550
-315
551
-262
533
-200
524
-128
534
-50
548
12
535
67
512
88
498
104
494
127
505
143
533
182
557
191
583
197
575
196
568
202
558
200
512
182
487
181
473
163
456
165
459
138
434
109
455
89
476
89
511
68
516
59
547
102
531
85
533
62
515
28
506
-1
496
-12
471
-11
505
-14
484
-12
494
-22
476
-38
486
-57
498
-46
470
-33
554
-3
585
-7
553
-3
537
10
493
13
476
24
435
4
428
0
423
-1
429
3
462
15
471
18
488
17
486
8
507
22
526
13
545
16
544
10
553
6
531
8
525
-2
533
21
534
26
542
25
521
21
518
9
519
36
524
56
528
66
514
80
538
166
523
175
522
149
525
125
502
97
501
63
497
28
487
-1
475
-17
478
-31
475
-41
502
-40
494
-26
506
-36
539
-10
555
41
568
117
541
187
531
242
550
219
539
183
502
197
493
250
552
202
628
106
607
57
564
2
524
-70
484
-129
447
-157
437
-195
414
-232
410
-257
422
-275
429
-288
422
-264
440
-234
449
-208
517
-203
561
-199
556
-193
553
-201
509
-194
470
-171
426
-135
440
-88
449
-42
447
-5
452
30
455
107
482
174
494
231
521
273
534
320
534
424
551
457
565
474
601
426
577
366
550
306
519
230
509
137
515
83
496
60
494
28
505
3
484
-35
461
-70
458
-85
505
-98
539
-114
531
-96
510
-92
488
-87
482
-86
456
-92
466
-98
468
-78
477
-69
506
-55
495
-38
516
-2
519
33
529
59
543
82
521
126
528
152
518
164
542
154
529
138
536
124
518
106
508
100
514
95
522
66
535
48
531
39
534
37
533
31
546
30
546
50
544
65
529
90
504
111
505
165
482
182
473
128
484
66
479
24
491
-14
485
-55
500
-101
507
-119
483
-134
489
-123
496
-123
519
-114
578
-89
541
-78
515
-74
474
-65
450
-18
440
58
438
90
417
121
449
123
448
68
477
16
488
-17
502
-54
528
-60
529
-100
525
-86
542
-83
507
-84
518
-65
516
-43
495
5
499
56
480
61
479
57
497
66
500
49
514
47
496
36
498
45
491
39
488
58
511
52
498
60
503
60
510
55
507
48
512
40
499
-3
512
-24
515
-24
522
-29
507
-35
508
-40
489
-41
495
-34
507
-22
501
-32
513
-42
507
-23
506
-6
518
-5
543
26
542
99
538
154
523
209
512
228
524
241
512
242
506
241
487
211
474
145
473
100
477
40
487
-15
491
-72
497
-104
499
-122
513
-129
520
-119
521
-102
519
-83
518
-55
511
-57
509
-32
507
-19
513
3
496
11
495
30
497
18
501
23
484
18
505
29
514
18
507
13
519
15
509
7
510
0
499
25
512
33
521
60
498
82
503
156
489
220
489
296
502
287
505
245
503
205
504
140
488
78
471
26
493
-5
502
-11
530
4
521
40
498
94
503
119
491
94
501
86
498
61
509
27
492
-39
482
-108
481
-141
505
-142
509
-139
512
-155
505
-191
494
-200
499
-175
509
-139
513
-94
529
-102
520
-124
514
-109
514
-87
515
-75
540
-57
576
-14
571
31
560
62
517
93
530
115
577
173
566
140
504
97
441
69
385
62
390
84
373
115
353
132
387
81
399
50
458
25
529
3
580
13
580
46
582
93
595
124
604
115
576
68
570
4
558
1
535
78
513
75
477
17
479
-31
492
-61
511
-38
522
-19
501
-14
451
-35
392
-64
398
-88
416
-110
446
-110
462
-94
469
-70
491
-73
490
-97
499
-83
513
-62
513
-37
522
-21
525
-7
509
-3
501
13
499
36
513
74
529
105
520
106
512
88
508
84
510
87
563
103
565
122
549
135
521
170
576
187
625
214
603
214
558
210
506
197
477
170
459
120
436
99
414
66
420
42
430
-11
456
-52
468
-81
466
-89
471
-131
507
-136
503
-112
508
-69
513
-41
502
-20
492
-10
487
3
494
6
493
-1
519
-7
515
-18
510
-37
520
-37
512
-47
528
-35
534
-51
539
-49
538
-74
517
-77
510
-46
515
-38
502
-16
510
-13
503
5
507
1
492
-15
478
-5
512
3
501
9
489
9
479
26
483
31
494
43
487
58
502
66
505
66
490
69
486
55
488
64
488
68
507
83
514
70
517
56
495
41
482
37
498
35
496
44
516
50
522
42
521
36
492
21
498
20
488
18
501
28
512
24
488
28
496
21
482
18
480
18
496
24
487
22
506
35
510
31
506
23
495
20
506
27
500
30
512
31
504
26
506
24
487
16
512
20
511
30
513
22
505
20
490
19
506
16
514
27
510
28
508
21
505
7
506
10
495
7
493
-3
496
-4
493
-4
493
-10
490
-1
489
3
480
13
485
29
492
39
513
53
503
54
501
61
505
72
506
74
526
69
503
60
508
37
504
44
502
36
499
32
504
21
492
18
486
17
493
14
490
19
505
19
518
20
507
22
499
1
505
8
487
14
508
18
498
11
504
19
506
17
499
25
483
31
501
24
503
35
502
38
520
43
516
30
522
37
510
29
502
25
508
26
516
32
508
26
505
21
500
8
488
4
498
19
498
19
519
21
506
21
504
4
494
7
495
22
503
27
518
29
509
17
497
2
481
-1
492
14
507
23
512
30
510
42
514
17
494
11
488
13
502
27
514
26
508
39
524
25
494
12
492
9
473
5
486
8
495
16
508
17
495
16
501
-6
473
2
478
20
510
42
520
42
518
26
500
8
498
11
501
15
500
19
511
32
510
14
502
25
499
5
502
14
493
17
495
22
518
31
504
12
491
13
491
8
500
8
501
12
506
23
507
16
508
1
475
-7
492
7
495
18
503
28
498
24
495
21
495
22
499
21
507
19
503
14
510
22
509
24
512
21
501
18
497
11
496
12
501
16
515
15
498
15
514
12
489
7
494
11
496
22
514
23
501
21
492
11
496
9
493
17
506
28
511
21
501
13
497
14
497
19
509
30
515
22
523
34
500
11
509
19
497
14
500
31
523
27
511
16
493
17
507
7
488
16
495
13
487
8
482
13
495
9
503
18
501
22
509
19
497
19
506
23
507
21
514
33
520
36
514
26
506
17
499
20
505
24
510
30
516
29
501
28
508
12
500
15
502
20
513
23
507
27
506
25
500
14
490
-3
481
8
494
-5
489
22
500
12
486
19
503
16
494
20
499
21
499
25
521
29
516
34
518
30
505
24
509
23
509
19
507
26
510
22
503
12
494
13
500
8
484
15
499
14
496
23
504
31
503
18
509
33
509
25
501
18
497
19
506
16
502
12
510
15
494
16
506
19
493
18
504
19
523
24
500
27
489
18
495
20
507
26
502
35
523
27
506
29
509
26
500
17
493
8
496
14
503
30
508
30
504
21
506
11
491
9
482
2
491
16
489
20
508
18
493
34
508
28
511
18
502
20
502
19
507
25
529
26
510
23
508
23
510
29
506
21
505
24
487
24
518
14
493
25
496
0
469
16
487
9
494
20
498
10
497
15
493
9
501
20
507
20
505
17
512
27
495
27
509
22
497
16
502
23
506
10
487
14
489
20
493
19
503
16
501
21
501
14
488
2
494
6
496
16
496
32
518
24
519
23
496
12
496
12
502
26
503
33
521
32
516
24
496
11
483
6
504
22
502
25
509
30
495
17
489
14
496
8
495
9
498
7
505
11
515
20
491
22
498
12
494
11
492
13
494
26
514
42
528
40
496
20
494
17
478
4
495
14
506
36
521
28
503
21
483
15
502
9
478
12
506
22
497
32
514
30
511
29
511
33
512
14
504
14
497
15
496
26
497
25
527
24
498
20
499
9
489
6
487
10
504
22
517
37
511
25
507
17
487
9
500
12
506
30
505
33
493
23
515
24
490
25
514
27
507
29
515
31
511
23
510
31
512
26
498
28
512
19
503
25
511
31
509
22
503
14
507
12
488
6
475
20
511
20
518
32
498
16
501
10
487
21
496
21
509
38
514
45
525
37
505
26
496
8
486
17
501
24
499
42
516
38
520
31
495
16
502
12
485
10
504
32
521
34
519
40
505
23
514
21
484
10
513
27
518
31
541
38
511
33
509
17
486
13
496
13
509
36
507
39
521
38
506
16
487
21
496
26
521
31
513
38
517
36
514
34
523
28
501
22
485
17
511
26
505
39
507
40
525
26
491
19
488
14
492
20
513
39
521
35
507
32
514
20
498
22
495
17
510
29
502
25
504
29
513
18
514
21
503
29
499
18
502
29
513
31
499
40
503
27
499
31
502
25
498
19
500
25
502
30
514
32
502
23
512
22
491
7
506
23
504
39
513
30
517
23
503
36
515
28
499
15
493
16
491
20
507
33
489
34
521
22
484
26
507
14
492
30
494
21
514
29
510
29
503
27
509
30
510
38
505
33
516
25
520
34
501
23
497
16
483
23
511
35
498
36
499
24
498
19
496
24
503
34
501
26
512
32
511
22
515
36
504
26
509
30
503
19
511
18
514
18
492
29
525
34
506
33
503
19
499
26
516
34
518
24
517
41
506
26
511
26
514
26
493
21
507
24
491
19
503
20
488
19
505
25
508
34
520
35
516
28
505
28
519
38
520
32
517
43
518
21
499
32
496
21
505
30
518
34
508
36
517
24
484
22
506
17
503
29
506
36
509
30
511
25
514
34
513
39
518
22
490
20
491
19
490
30
512
28
504
28
511
29
497
21
497
24
499
20
501
23
512
37
515
24
504
31
508
12
496
14
500
13
484
25
505
24
499
19
503
13
500
14
483
10
513
26
495
33
513
28
515
28
508
21
497
9
488
18
501
29
510
30
515
37
502
16
498
21
490
4
498
24
503
29
526
38
510
34
506
21
503
16
505
22
513
32
521
26
524
27
501
10
498
8
482
5
498
22
500
30
515
35
510
31
508
17
497
11
499
27
505
33
516
50
534
43
516
30
502
19
499
10
502
22
504
38
516
35
499
32
518
18
482
6
492
15
487
26
519
46
513
40
512
24
495
6
489
9
497
17
510
31
515
25
503
27
500
20
484
9
498
25
517
29
514
41
519
35
518
26
505
15
489
15
500
29
504
26
512
22
506
26
490
18
484
6
476
6
493
24
506
27
516
33
508
31
511
37
506
16
507
30
504
40
507
33
507
33
506
19
508
22
491
23
503
38
499
31
516
29
498
24
506
14
499
24
507
13
501
35
507
24
516
30
482
15
503
3
486
16
496
22
514
29
508
19
502
23
500
20
499
23
507
32
506
43
531
49
529
32
510
36
500
9
493
29
509
32
512
28
521
29
498
6
491
5
482
13
499
30
516
35
516
40
518
25
508
24
518
26
517
35
527
40
518
41
515
30
500
11
487
7
489
23
513
32
525
24
509
34
510
25
508
27
496
25
508
29
506
39
522
33
520
40
513
25
510
31
508
23
502
30
513
18
488
22
516
28
503
34
500
22
509
20
490
35
519
32
518
50
523
40
514
27
507
25
498
23
502
25
521
18
494
18
503
17
495
21
509
37
507
21
501
26
508
18
506
41
522
34
521
36
509
38
513
27
514
27
499
24
505
11
490
18
493
25
505
28
496
24
510
33
509
15
488
16
506
35
511
36
525
39
523
30
515
20
503
36
499
21
500
31
498
15
495
14
508
14
497
29
512
40
523
35
500
25
503
22
512
32
515
28
512
42
516
14
528
34
523
28
495
21
503
13
484
19
497
21
504
45
538
37
501
35
513
26
498
22
508
28
510
38
517
44
519
24
512
23
493
19
502
22
500
12
499
21
498
19
523
32
524
29
515
37
525
30
502
30
510
33
509
43
517
27
504
28
500
24
489
15
493
19
490
22
512
27
503
28
505
23
511
20
496
16
513
31
510
22
510
30
503
30
508
31
516
16
512
30
521
26
512
27
502
30
506
33
499
27
511
24
514
30
501
25
494
22
508
27
501
23
493
28
495
30
507
21
511
19
499
25
497
16
498
14
498
22
506
31
515
38
517
27
496
21
507
20
507
25
498
31
499
33
509
30
503
24
514
13
492
20
492
16
495
15
508
33
499
22
512
25
502
23
508
30
516
32
520
33
510
28
502
23
512
21
479
22
509
26
510
33
522
35
528
31
503
25
498
22
477
12
506
43
520
41
520
40
514
29
501
27
498
23
501
30
513
32
516
45
519
25
509
27
506
23
500
28
515
28
513
36
522
37
514
34
511
32
499
21
511
25
510
33
520
39
521
33
502
12
491
14
484
14
504
23
504
37
516
43
508
30
510
22
502
19
495
20
506
19
502
19
509
27
494
24
513
16
486
14
503
28
510
42
518
38
513
30
503
20
503
21
507
37
521
43
506
30
528
29
503
21
503
13
498
16
495
9
486
23
505
29
515
29
509
27
507
14
498
12
494
27
513
47
529
49
523
41
508
15
491
11
488
16
502
36
508
37
521
34
501
8
495
3
511
17
499
28
523
49
525
44
512
27
496
19
489
0
494
28
514
26
522
31
507
28
501
7
489
9
484
18
498
29
517
46
522
36
507
30
498
29
496
23
507
30
504
33
505
30
508
29
510
21
500
26
495
27
506
27
500
26
509
40
525
27
499
24
509
13
501
27
511
35
522
42
523
42
512
24
494
28
501
5
490
27
522
34
524
25
509
28
507
6
489
31
510
29
533
40
524
34
515
30
519
19
494
19
503
23
502
22
504
26
508
31
507
29
501
20
494
11
492
32
511
37
512
34
517
27
518
16
489
19
514
16
513
37
519
36
512
27
489
16
499
17
496
27
513
32
519
42
518
30
522
30
486
20
523
30
495
30
512
37
531
35
497
20
504
8
493
17
501
18
511
25
511
34
531
35
522
37
509
24
507
21
506
23
504
25
508
29
513
34
517
30
511
24
506
23
505
26
498
31
508
34
517
26
516
31
508
23
499
24
497
28
516
37
498
24
513
19
501
20
498
22
509
29
505
22
508
12
480
13
487
19
511
24
516
33
530
36
517
25
505
25
499
16
501
15
509
30
507
35
512
25
515
27
505
22
516
20
501
15
495
27
511
31
512
40
501
23
514
32
507
22
511
24
497
19
492
21
508
23
487
17
508
19
488
21
504
30
502
25
524
37
514
18
507
20
516
24
501
31
533
41
508
37
508
31
504
13
494
18
491
8
500
20
514
28
501
14
504
24
494
16
483
22
506
27
507
27
498
26
522
31
510
27
508
34
506
22
496
22
512
26
507
26
507
26
510
20
505
15
496
17
515
27
499
29
511
21
513
26
488
22
513
33
523
31
522
25
516
22
502
21
502
30
504
17
520
18
502
23
515
14
480
22
502
26
502
23
505
19
503
20
509
17
492
13
522
30
487
19
499
21
505
11
489
16
492
20
495
15
509
36
506
23
525
32
491
13
501
27
507
26
522
35
509
37
527
33
515
17
486
7
493
22
502
27
523
38
517
24
512
19
507
26
504
30
513
29
507
24
516
35
505
30
507
24
500
30
510
28
502
23
492
22
500
24
511
25
507
36
507
27
503
35
509
28
510
39
515
25
524
37
514
25
523
27
515
33
505
22
520
25
510
26
503
21
504
18
488
19
500
27
519
34
508
30
521
31
508
34
502
26
511
32
515
24
520
30
516
17
520
29
505
29
509
20
520
25
514
17
530
20
513
24
528
25
508
18
498
20
498
28
513
40
506
21
510
22
501
19
490
12
516
22
513
29
517
37
529
31
517
35
513
28
512
28
525
31
524
29
497
18
500
30
509
22
494
12
497
14
506
25
504
26
518
21
498
14
494
8
495
8
496
29
524
39
520
29
509
19
503
6
478
14
507
26
511
34
523
32
501
28
509
28
516
27
500
31
518
38
520
32
505
29
510
27
511
32
507
27
499
22
516
31
508
19
513
25
511
16
491
20
498
19
507
20
506
29
506
32
505
29
515
26
502
19
507
34
512
24
507
27
500
27
501
22
502
25
514
33
506
29
527
32
503
24
514
20
511
21
497
30
512
42
525
35
499
15
500
20
497
18
493
19
506
26
510
33
508
21
511
14
488
7
488
20
511
26
509
39
514
35
509
26
508
30
507
29
522
34
515
29
514
23
499
24
498
17
491
21
491
18
502
23
517
29
515
32
518
21
509
19
499
22
506
32
524
32
527
41
525
29
494
27
493
15
490
21
504
26
505
41
529
33
508
23
500
26
502
20
498
17
500
28
514
25
507
34
500
24
497
17
513
20
508
16
504
38
504
27
502
20
491
9
486
15
500
14
507
29
520
32
503
17
507
18
491
21
499
31
518
36
517
29
520
32
523
37
495
21
510
14
498
32
509
28
519
34
510
20
498
12
496
16
502
33
515
33
509
34
511
25
508
21
514
34
514
35
527
32
523
34
499
24
500
16
502
22
506
38
527
37
509
35
507
31
518
33
497
39
514
30
497
31
521
29
503
38
509
36
521
39
515
31
504
29
505
33
505
30
507
18
508
27
499
24
509
26
503
25
502
21
498
23
486
20
516
33
514
33
512
22
503
9
496
31
498
33
522
38
528
44
516
28
506
23
503
11
500
20
505
22
506
34
516
25
511
38
516
24
518
22
504
21
488
18
500
34
504
42
519
28
516
24
496
13
496
12
505
17
511
41
510
20
508
28
502
15
498
24
503
21
506
24
505
32
516
29
496
26
506
20
509
26
509
28
518
39
536
38
523
24
502
7
487
5
490
17
526
47
513
46
522
35
505
28
486
15
493
21
501
18
510
35
511
31
513
20
499
16
501
16
502
19
503
31
507
31
516
28
510
19
506
15
491
14
498
18
503
27
512
27
509
25
508
19
523
27
509
19
513
32
514
29
519
30
529
22
495
5
514
11
496
5
503
24
507
26
517
35
501
23
500
19
487
12
503
36
507
33
524
33
502
24
500
21
507
18
480
14
509
35
510
27
517
28
511
28
507
19
496
17
497
21
509
21
506
31
518
34
511
18
509
13
500
9
505
19
508
33
522
28
519
28
502
4
493
7
493
18
510
23
514
29
503
15
501
23
507
17
509
20
506
22
498
21
514
21
501
35
507
28
506
26
513
20
513
14
515
28
510
38
525
33
505
26
498
-8
490
17
505
13
511
24
510
27
502
23
505
1
479
5
477
8
507
26
514
37
524
26
516
20
501
21
509
21
505
17
510
32
533
27
519
15
513
13
492
17
491
27
520
30
509
40
522
35
512
16
502
18
500
22
499
19
513
32
510
30
511
28
502
9
501
8
488
13
504
27
517
26
503
25
493
8
496
13
505
22
513
31
516
30
517
25
512
35
495
15
508
21
510
23
521
32
516
23
527
18
507
24
495
12
509
28
509
26
528
28
512
10
481
13
493
6
491
19
516
30
503
12
504
23
497
1
492
15
498
24
524
38
530
40
512
29
500
25
505
22
507
26
513
38
511
34
513
40
506
34
517
31
494
20
522
15
512
12
490
22
506
43
524
44
517
39
507
25
490
26
499
32
491
40
524
43
517
29
498
12
500
18
485
19
501
25
505
30
510
21
509
27
504
20
507
42
513
41
513
23
510
31
497
36
501
26
508
37
513
33
506
30
502
27
509
38
510
26
516
33
525
32
518
34
523
29
506
28
509
25
506
33
503
30
509
31
501
24
491
14
489
16
482
18
489
31
501
29
500
31
510
13
502
27
499
24
504
35
520
26
497
36
513
29
509
24
507
24
497
31
505
20
515
31
494
32
503
9
491
23
495
22
506
21
510
35
514
33
522
37
504
26
494
12
500
27
503
23
516
24
511
29
506
17
496
14
488
20
494
20
504
28
505
32
508
38
517
28
507
29
494
22
502
19
500
22
502
30
516
26
508
31
512
26
507
23
501
28
513
35
504
29
508
28
508
21
512
41
508
24
512
28
500
29
498
25
509
25
511
26
511
33
512
24
504
27
497
25
509
32
515
45
526
44
510
26
509
22
503
28
509
36
518
36
509
34
506
32
501
25
497
25
495
16
502
27
502
31
506
41
512
30
507
38
514
31
508
20
512
23
509
36
520
31
517
33
509
30
497
28
503
28
523
37
510
25
512
24
498
43
510
40
508
30
511
31
498
28
529
18
488
34
518
29
535
47
517
40
496
35
500
27
511
35
522
37
513
32
508
33
517
36
504
30
505
23
498
27
508
22
496
22
505
24
498
24
500
19
492
14
499
22
496
31
506
28
517
41
517
41
506
30
501
22
500
32
515
32
504
34
518
32
513
21
493
24
499
18
495
20
474
16
491
24
503
36
509
30
514
33
504
26
504
22
503
36
505
36
518
34
508
26
503
32
502
17
502
37
513
32
505
33
498
16
494
22
501
36
515
34
520
45
519
35
498
25
492
14
488
24
506
32
513
34
505
25
503
23
491
18
495
27
499
30
510
37
517
47
519
41
524
40
510
22
507
20
494
28
508
30
503
35
507
30
504
24
496
22
494
33
510
34
502
35
520
36
511
24
501
19
508
30
512
37
519
36
518
34
506
29
503
25
496
5
493
20
496
26
521
36
518
36
521
27
500
26
505
31
498
30
510
29
513
35
509
23
492
17
493
10
487
25
506
30
513
30
495
20
492
10
492
13
491
26
500
29
506
33
519
45
520
31
507
23
502
20
504
28
504
31
516
35
515
43
510
25
503
16
493
35
517
30
521
37
517
34
506
23
489
29
511
22
503
25
511
27
508
30
508
21
493
21
487
13
488
26
510
28
503
29
503
30
509
24
493
20
489
20
499
25
509
33
514
39
515
32
503
21
494
12
500
32
498
29
501
24
507
24
493
24
502
20
507
28
499
32
513
21
492
17
497
16
500
24
501
24
512
23
505
33
508
20
499
28
501
15
490
2
499
16
499
19
510
31
520
33
501
18
503
21
500
21
509
32
519
35
522
32
519
31
504
18
498
10
502
24
497
26
518
32
512
21
505
22
495
22
507
21
499
30
508
33
512
33
510
24
494
15
495
11
499
22
520
33
485
17
499
26
510
27
493
26
504
11
503
27
493
25
499
23
499
26
493
22
497
23
491
18
501
24
499
26
505
27
486
25
491
10
482
20
502
26
510
33
513
31
499
24
499
28
501
26
505
28
508
35
513
25
517
31
505
29
501
28
501
24
489
11
490
15
489
26
511
32
516
31
508
21
488
8
485
25
497
24
500
17
505
21
494
17
502
19
498
19
490
31
508
18
502
18
497
31
509
19
503
29
504
25
506
23
506
33
501
36
503
28
506
9
495
23
503
17
512
35
513
33
507
26
501
15
494
14
489
24
503
21
510
25
508
32
501
22
495
29
499
26
504
25
494
16
503
23
504
22
506
30
501
33
503
20
493
27
500
20
518
33
511
25
518
40
523
27
498
18
491
26
493
39
512
37
511
29
506
13
490
-5
473
6
482
13
508
25
516
36
497
17
502
4
483
12
501
32
511
28
505
36
506
20
503
20
502
24
501
17
502
31
505
32
513
30
493
22
493
23
509
17
499
23
518
29
516
35
501
27
511
21
495
8
495
9
496
21
505
28
504
36
506
20
496
17
499
16
487
25
515
36
518
45
526
42
517
24
492
16
485
13
498
27
507
34
510
28
501
18
499
17
483
4
502
28
498
24
509
37
510
22
498
21
506
15
498
17
494
21
505
29
508
26
511
24
504
17
495
14
501
28
520
41
519
39
511
22
500
12
483
13
505
17
516
32
514
29
516
21
499
24
498
18
496
16
504
25
509
19
491
9
494
28
513
25
488
34
501
20
491
24
502
23
500
35
509
35
515
34
510
23
504
30
509
32
503
27
506
25
507
24
492
19
488
19
500
15
490
28
497
21
497
9
496
17
492
19
495
20
500
15
492
21
493
14
490
25
501
18
500
13
496
24
503
16
496
36
518
23
488
26
509
9
498
24
494
23
501
19
501
28
501
35
492
27
508
23
503
26
508
30
509
40
508
37
510
51
503
29
491
35
494
32
502
26
501
20
492
14
498
5
496
10
505
13
495
3
493
-9
492
-4
513
10
520
23
521
18
503
-2
488
-9
492
-4
519
17
511
25
522
18
497
8
485
-6
493
15
495
22
507
24
505
28
490
16
498
16
497
23
510
26
507
26
503
24
506
26
513
23
491
12
502
20
504
21
519
31
508
30
519
23
488
28
499
25
497
34
511
38
507
32
503
34
491
27
489
36
519
22
494
36
501
31
497
38
510
33
495
26
510
26
499
28
496
20
508
29
503
32
501
21
499
18
488
15
492
14
496
19
520
23
507
25
506
18
481
17
510
29
508
41
525
35
510
25
494
9
494
13
503
23
510
32
520
32
485
25
511
15
484
12
491
21
515
15
503
20
515
23
487
28
511
20
498
25
500
36
520
28
518
29
491
27
498
20
478
24
484
21
503
33
519
43
526
31
521
26
509
30
514
16
499
29
515
31
515
33
507
29
501
14
489
28
502
28
485
32
499
18
498
2
501
16
501
17
492
29
500
26
495
33
504
25
501
32
497
30
501
15
507
20
506
15
505
20
509
21
509
16
505
8
501
-3
511
0
498
12
509
21
511
18
503
7
483
-3
497
4
490
12
504
19
507
11
482
14
487
12
491
20
500
22
509
31
519
24
493
32
488
25
498
35
493
34
495
31
495
27
505
27
508
27
520
20
512
32
517
39
529
54
514
41
498
40
504
24
497
41
517
49
513
49
526
46
490
29
488
25
488
30
495
34
503
32
491
20
496
6
501
18
503
21
516
28
518
29
510
21
508
18
500
23
527
26
513
25
520
27
518
21
509
27
494
12
502
25
491
27
490
27
489
30
487
26
497
23
484
35
493
28
491
27
495
35
499
21
488
19
485
12
502
18
508
33
505
32
513
27
501
27
509
14
481
29
516
29
503
34
501
22
522
23
507
32
511
22
513
27
496
27
501
19
506
17
504
27
517
28
519
27
510
20
505
28
499
25
498
27
516
38
522
36
519
28
517
16
501
14
512
12
494
23
503
14
509
4
510
4
517
15
524
18
496
3
494
8
489
14
494
29
489
28
491
19
491
25
463
23
472
28
478
29
489
36
518
36
557
35
547
32
534
26
540
36
555
36
549
49
567
35
541
27
508
15
493
20
498
29
493
33
490
19
479
7
464
19
477
22
493
33
497
26
506
39
491
18
481
25
496
27
504
19
506
33
486
33
517
36
492
55
504
65
499
57
497
66
514
65
520
62
504
48
508
32
489
18
485
12
491
9
519
9
503
17
508
14
519
18
511
16
533
3
504
8
520
18
514
8
514
18
518
-2
512
-22
517
-29
527
-13
531
-12
520
-21
531
-21
522
-7
518
-14
500
9
490
11
488
43
500
73
499
77
497
60
496
50
481
35
485
45
489
38
489
43
488
33
492
33
479
21
491
29
505
31
503
17
519
18
497
6
500
21
514
19
532
18
515
20
513
21
522
21
509
26
499
14
503
16
509
19
516
4
507
4
505
7
496
-14
499
-6
511
-4
518
-5
511
-15
516
-11
501
0
516
2
510
2
507
0
494
2
510
6
498
17
513
18
498
27
512
41
499
56
509
93
498
108
500
110
509
99
504
89
504
74
502
45
495
34
491
22
490
12
509
16
528
11
509
1
506
0
490
10
495
16
498
22
511
24
508
18
526
22
511
23
503
30
513
16
515
9
509
5
514
8
505
7
500
15
493
12
494
22
514
29
516
21
526
9
509
-16
487
-18
484
-13
491
2
504
17
504
29
508
11
486
0
497
18
497
24
489
14
533
-7
518
-13
518
-32
512
-33
519
-35
508
-27
519
-8
526
21
515
41
499
81
489
74
490
65
496
65
478
51
478
51
486
37
478
25
475
13
467
-7
516
2
536
12
557
3
547
1
570
6
560
15
551
16
542
18
522
12
503
18
488
16
484
26
484
29
491
25
464
17
467
21
481
23
480
24
481
16
491
14
488
14
467
33
504
39
488
44
503
58
497
69
503
92
496
115
495
111
493
97
507
77
496
69
516
74
515
74
524
67
512
36
513
11
496
8
515
2
510
-9
523
-8
523
-12
514
-22
514
-17
510
-15
525
-18
516
-34
514
-25
517
-23
511
-27
505
-30
514
-43
503
-44
499
-43
502
-33
502
-28
508
-17
498
-25
498
-11
489
-11
498
-4
505
6
502
9
495
3
501
9
481
23
493
43
500
64
484
72
509
83
506
82
535
75
531
78
536
70
537
74
529
68
505
65
524
60
519
62
523
46
513
37
501
30
488
28
494
13
478
11
472
1
489
16
503
30
511
30
516
41
511
32
522
41
515
47
515
35
516
38
509
27
489
21
496
21
512
20
473
5
471
8
479
12
497
21
501
28
517
21
501
22
509
16
502
23
497
21
514
10
502
27
508
15
514
44
501
54
500
61
498
63
524
61
519
43
511
32
520
17
498
23
519
29
534
29
537
31
526
39
496
35
507
19
506
16
512
8
512
18
516
3
490
3
491
-40
491
-53
508
-51
512
-53
508
-47
499
-37
500
-24
517
-9
506
-1
514
-4
504
6
503
12
498
15
510
28
505
35
510
41
496
36
507
35
503
48
511
46
514
54
512
52
503
46
502
42
513
44
508
39
494
34
498
27
493
38
505
49
516
55
504
38
489
38
498
52
514
58
527
62
518
72
506
62
509
78
500
72
516
86
511
65
503
54
503
42
496
33
516
39
506
29
522
30
507
14
500
-9
503
-20
515
-25
496
-25
520
-35
501
-31
502
-31
503
5
494
32
505
30
500
29
506
33
503
13
475
-8
483
-3
496
-2
527
4
528
1
518
10
486
17
493
6
488
17
503
25
532
29
537
18
534
-14
524
-20
500
-41
509
-48
510
-36
513
-27
503
-36
502
-24
489
-20
487
-30
485
5
515
23
523
25
522
23
521
22
525
46
524
52
572
58
562
64
547
55
502
48
496
59
470
40
464
48
458
40
469
50
461
50
483
47
498
40
480
36
480
43
484
53
494
53
503
56
512
35
496
36
498
34
517
40
512
49
522
57
522
60
504
54
515
59
512
62
536
58
550
49
528
25
544
8
506
4
532
-3
533
-4
511
-2
519
-14
509
-13
514
-23
498
-27
498
-28
505
-37
518
-44
514
-64
511
-75
513
-87
515
-84
511
-78
530
-74
518
-44
520
-37
512
-50
508
-54
507
-53
523
-54
522
-37
500
-34
504
-37
503
-18
493
-10
492
-4
501
6
490
10
489
9
490
27
489
19
492
23
489
31
489
36
503
35
502
40
499
29
505
30
509
23
504
40
517
32
520
24
510
25
496
12
498
26
520
28
530
31
539
31
521
45
524
88
521
100
522
93
518
84
509
62
496
41
496
29
489
17
491
-3
489
-11
485
-17
501
-30
502
-19
498
-23
503
-32
487
-30
502
-28
513
-9
520
-4
501
-16
524
-13
501
-36
514
-34
508
-38
513
-36
521
-33
521
-32
513
-33
520
-32
507
-24
496
-18
515
-12
510
17
520
54
499
106
506
121
527
145
536
122
548
92
525
47
507
5
480
-34
469
-55
462
-71
457
-67
487
-78
482
-79
502
-90
491
-67
465
-58
492
-31
493
-7
506
30
495
43
498
39
506
51
518
50
515
39
519
26
534
6
513
5
520
-1
527
12
524
8
543
5
516
7
537
-9
505
-9
528
-5
515
-2
505
17
514
23
523
20
507
9
493
-2
496
4
491
2
516
5
514
-3
517
-7
527
-11
509
-26
503
-25
496
-18
500
-31
505
-26
487
-24
476
-21
463
-8
460
7
468
16
485
20
497
28
547
35
551
37
569
38
563
57
563
96
536
134
535
157
519
151
514
139
495
92
492
54
479
6
487
-18
465
-43
486
-58
490
-47
496
-53
491
-65
488
-47
498
-42
481
-39
500
-29
497
-21
487
-13
497
-16
483
-10
501
6
493
17
501
13
507
22
511
39
490
85
493
157
503
174
501
145
521
128
514
111
522
67
508
55
509
69
515
45
525
-12
515
-63
508
-92
509
-109
514
-113
513
-147
507
-155
507
-176
501
-168
484
-174
499
-182
518
-163
511
-121
528
-100
509
-82
504
-52
511
-31
507
-24
488
7
493
17
476
18
483
38
473
47
493
76
498
90
523
99
533
96
545
102
556
110
552
96
538
101
527
102
529
100
525
86
505
91
507
84
519
79
510
77
523
64
512
48
511
38
501
33
510
34
515
32
521
27
519
6
495
4
506
-4
496
4
520
22
503
11
507
13
503
-12
486
-3
486
1
484
8
512
9
495
-1
506
1
496
-6
496
-15
508
3
509
-3
516
-13
499
-21
495
-16
502
-23
486
-13
519
-3
504
2
505
-14
491
-24
484
-16
482
-4
509
8
516
6
493
-4
496
-16
498
-22
496
-4
494
10
504
2
532
15
499
-1
491
-10
505
-11
504
3
498
11
511
14
535
12
507
17
510
10
507
17
519
11
533
24
511
14
491
3
498
-7
511
12
507
25
497
12
520
-3
491
-6
478
2
496
16
512
24
517
19
514
16
498
9
517
9
513
5
505
22
496
25
501
17
518
13
503
-1
510
-4
492
2
507
16
484
14
513
18
510
0
518
3
515
14
505
21
505
38
512
70
484
134
453
149
453
108
457
92
501
90
506
80
523
62
541
108
530
105
544
62
521
38
521
16
513
0
506
-45
485
-66
467
-82
490
-83
480
-100
512
-118
538
-131
565
-130
560
-119
535
-117
541
-116
525
-112
539
-105
524
-68
508
-22
488
-20
478
-6
470
-11
472
-3
475
-14
476
-19
475
-24
485
-14
493
-1
505
12
518
55
512
70
512
64
490
58
493
44
501
46
497
58
487
48
503
34
517
36
520
55
517
63
526
69
526
54
510
41
486
22
495
5
477
-19
470
-44
487
-34
490
-27
508
-9
483
16
506
44
499
51
513
78
527
81
517
84
518
77
507
55
506
47
499
67
488
80
468
51
485
30
496
9
514
31
532
22
563
26
563
21
606
19
630
18
584
18
564
1
529
-9
485
-30
477
-37
462
-26
459
8
464
54
480
94
486
138
467
164
459
160
468
144
481
86
506
24
506
-40
492
-87
510
-128
517
-137
518
-124
522
-147
505
-173
511
-198
490
-187
509
-160
513
-146
522
-149
507
-151
490
-143
496
-138
502
-108
531
-79
528
-48
522
-18
517
-21
499
-12
527
6
544
34
554
56
513
79
509
76
554
86
584
80
559
82
526
91
493
121
434
167
424
196
397
220
402
245
423
243
447
227
472
216
478
205
503
197
524
175
542
104
534
20
523
-62
535
-135
506
-186
520
-228
523
-246
514
-283
507
-263
525
-199
526
-141
523
-118
531
-135
517
-110
539
-58
535
-36
541
-24
486
-24
503
4
524
70
545
110
538
126
524
114
488
87
462
48
452
52
444
46
464
49
491
53
520
75
544
59
499
44
490
26
521
42
565
35
605
35
565
23
506
23
446
14
442
35
430
20
437
4
437
-6
433
-36
437
-32
468
-18
513
10
549
16
555
20
551
23
549
29
549
51
564
62
554
72
551
106
527
121
512
112
518
94
494
85
480
162
493
157
494
120
477
113
459
161
456
176
477
143
484
104
485
39
515
-7
546
-48
555
-102
541
-153
536
-179
542
-203
527
-204
512
-208
491
-199
477
-168
491
-86
503
-21
498
24
485
7
498
-2
509
18
536
48
556
97
544
152
539
193
544
138
560
104
524
86
505
84
509
75
544
34
559
19
526
25
475
2
446
-14
443
-67
446
-121
455
-124
442
-172
452
-207
465
-243
491
-268
504
-295
537
-289
522
-255
528
-196
531
-69
517
107
528
230
517
283
499
282
496
293
507
317
498
286
493
235
503
204
503
184
488
143
492
93
515
41
519
-4
528
-37
521
-43
511
-67
508
-72
526
-88
525
-80
517
-74
513
-97
522
-144
539
-143
527
-123
532
-97
503
-77
501
-58
487
-30
486
-8
482
17
488
32
462
139
488
140
460
167
476
182
476
210
510
172
521
129
549
99
551
49
514
0
462
-35
440
-56
443
-46
494
-35
539
-69
568
-93
569
-99
586
-82
583
-24
595
28
585
35
582
15
534
-20
527
-36
507
-32
508
-46
512
-50
507
-59
472
-74
483
-76
490
-57
486
-46
497
-16
491
3
474
38
464
85
473
131
479
150
480
152
487
181
483
196
480
182
470
176
478
141
494
98
497
56
513
17
507
-47
480
-125
479
-144
499
-129
507
-102
556
-90
548
-104
566
-121
548
-129
556
-114
563
-101
548
-93
535
-93
509
-86
462
-78
484
-37
509
-2
547
40
533
85
501
149
444
191
410
188
418
158
438
159
471
116
450
90
463
52
466
28
488
3
485
-20
510
-49
509
-77
545
-85
534
-84
581
-83
574
-64
584
-67
566
-70
556
-71
549
-78
529
-85
515
-74
511
-73
491
-61
517
-46
487
-19
478
-24
502
-5
483
9
478
25
495
33
517
61
474
53
437
57
406
60
404
61
465
73
554
86
545
77
491
73
463
58
476
59
510
47
522
57
534
55
525
49
517
52
509
43
522
46
523
47
512
72
532
84
529
93
530
102
557
99
539
80
531
62
547
53
510
41
523
31
507
15
495
12
498
-7
489
-9
512
-1
516
-4
513
-10
483
-42
485
-40
486
-48
544
-41
552
-37
519
-34
439
-47
434
-53
474
-36
587
-22
614
10
569
25
510
90
522
125
481
98
470
64
435
45
451
31
458
4
469
-15
464
-26
479
-2
501
49
527
90
528
87
549
88
531
106
511
99
521
127
529
112
533
41
525
-36
512
-68
509
-88
505
-63
512
-19
517
15
517
20
497
13
483
10
497
16
515
15
524
4
545
-46
529
-95
534
-80
530
-92
524
-106
518
-110
519
-114
526
-106
498
-107
504
-97
498
-82
511
-74
518
-56
523
-48
511
-46
503
-45
462
-41
497
-33
579
-14
581
40
537
113
502
162
493
206
453
238
460
218
458
186
450
156
452
125
438
97
457
70
470
51
461
39
482
12
488
-30
474
-65
486
-72
503
-57
524
-49
542
-39
527
-30
539
-23
512
-14
530
13
523
25
533
39
522
43
512
35
509
45
498
56
500
58
512
64
509
57
516
57
513
49
521
51
522
41
513
41
518
38
525
38
513
22
518
18
508
10
503
11
514
7
509
9
518
1
507
-1
496
-10
507
-10
491
-10
511
-6
497
-3
520
-12
506
-17
491
-28
496
-24
495
-15
507
-10
521
-9
518
-10
511
-22
506
-31
507
-23
501
-1
509
-9
486
1
497
-21
554
-13
551
-18
532
-1
509
-9
473
-5
455
-6
426
-12
435
-18
434
-22
449
-2
462
10
492
14
501
-6
495
-9
511
-19
508
0
530
19
532
22
539
16
534
3
525
2
518
2
532
21
534
28
541
28
536
10
519
14
515
9
512
21
530
25
519
23
508
26
526
26
513
14
490
0
494
5
505
31
517
35
531
28
509
11
491
3
483
1
494
31
507
36
529
40
518
23
495
21
482
15
496
27
508
46
502
35
499
29
504
27
491
27
500
21
497
26
504
36
511
42
503
33
515
14
494
15
493
21
502
20
505
36
523
36
507
28
503
16
499
19
498
20
505
27
517
30
514
7
487
16
505
7
506
25
508
25
514
28
524
33
525
24
511
14
506
17
507
17
501
14
517
25
523
15
499
13
479
1
499
1
497
3
482
5
510
14
512
12
497
-13
483
-7
490
3
484
11
496
18
512
10
523
18
517
5
496
0
507
10
510
6
511
9
519
19
507
4
497
-1
500
7
496
5
496
7
485
11
502
-3
490
8
506
13
502
6
509
20
514
14
507
11
500
4
503
9
507
17
502
5
504
12
510
-5
506
16
501
7
501
-1
491
1
499
15
508
14
518
21
512
7
501
4
490
-5
483
9
505
10
505
7
507
8
508
-1
503
-1
498
3
496
7
500
11
501
14
516
20
502
5
515
8
499
9
514
12
509
10
513
16
504
27
506
20
503
24
507
36
509
51
510
50
503
84
494
92
513
76
506
43
497
31
519
11
511
15
506
-4
506
-24
499
-31
498
-58
494
-96
486
-101
518
-75
526
-67
509
-54
510
-45
490
-26
513
-15
509
-11
519
4
507
12
516
10
505
14
495
11
482
26
502
36
515
49
518
54
500
29
489
27
486
33
499
47
512
48
529
56
509
33
513
28
497
24
498
37
500
27
504
30
509
36
513
20
508
9
495
5
514
19
510
24
518
35
533
15
503
18
501
0
488
4
505
24
517
20
523
21
509
9
494
-2
494
5
502
13
506
9
514
25
510
13
505
7
501
5
500
10
516
9
503
16
509
11
498
8
502
9
492
14
490
-2
494
0
496
-1
502
5
513
2
501
11
528
9
496
8
507
12
514
12
515
13
493
11
512
10
502
9
503
2
510
19
509
6
503
10
516
1
511
17
521
13
498
13
514
7
498
19
519
19
513
27
522
13
506
11
502
5
488
2
519
14
516
22
517
18
507
8
504
2
487
12
505
-3
503
0
489
16
505
19
519
23
513
22
506
12
504
13
497
10
509
17
501
15
500
8
506
11
492
-3
484
12
497
10
504
18
505
5
487
-3
494
9
504
14
507
12
507
14
512
11
490
0
498
-4
482
4
495
6
508
17
516
8
513
20
509
12
510
1
481
12
502
20
507
23
513
17
510
3
499
2
488
5
496
19
495
3
501
9
505
4
505
-4
492
4
508
13
508
21
516
19
497
14
499
12
498
3
497
6
501
5
506
9
500
10
513
13
487
9
495
4
504
7
501
24
521
17
513
23
507
11
499
10
500
7
497
24
521
13
508
18
491
1
503
-2
481
14
501
12
511
18
510
11
515
8
515
21
512
17
517
15
505
21
511
21
510
18
517
15
504
-1
509
2
491
6
496
2
504
12
495
12
509
11
495
-3
495
-2
490
9
515
20
520
15
518
5
490
-10
499
-5
478
-7
488
3
511
9
494
14
508
9
486
-7
499
16
507
10
513
19
512
32
518
23
518
13
495
-4
488
-4
495
7
508
6
506
24
510
8
499
-2
492
-15
460
-2
501
4
505
27
528
21
518
15
498
2
503
2
496
1
486
21
519
20
496
12
512
3
486
4
493
-4
503
22
508
23
519
18
507
17
503
6
492
-3
503
13
513
21
517
26
506
15
501
3
484
4
495
-6
492
23
515
18
513
16
506
15
497
7
493
-2
504
13
509
24
521
12
505
14
497
0
500
0
485
11
505
11
522
23
504
22
515
7
501
7
498
1
496
23
510
24
511
29
512
7
493
0
493
9
501
1
510
18
505
7
494
0
483
2
502
13
501
11
506
11
504
9
480
4
491
9
499
9
507
3
498
7
500
2
502
6
497
1
503
10
490
4
498
5
499
7
503
14
510
6
510
10
505
4
499
5
500
4
498
6
502
2
490
7
499
2
502
-1
483
9
484
1
498
5
505
13
501
11
516
12
506
19
496
12
497
12
481
0
507
16
503
19
526
10
503
11
503
6
494
-4
485
3
508
23
510
14
509
3
498
2
507
2
488
10
494
19
498
9
500
7
509
11
497
4
498
0
495
13
500
1
501
18
509
23
513
17
516
13
498
2
507
14
510
15
497
20
509
23
504
-1
494
6
504
0
487
3
507
11
505
11
502
10
498
5
500
7
513
11
507
17
514
13
516
14
501
5
501
6
505
5
513
7
496
8
511
15
521
14
501
2
505
9
496
1
507
14
502
10
519
23
495
-1
508
1
480
4
500
14
520
20
513
24
515
6
497
-7
489
0
498
11
497
6
499
14
490
5
511
14
497
12
513
5
493
7
495
5
506
9
495
6
502
8
492
3
488
5
511
12
508
16
515
16
510
19
494
8
493
11
491
9
501
32
533
18
510
15
502
3
483
0
483
-6
499
16
503
21
530
18
518
20
505
-1
513
3
494
13
511
13
502
14
502
12
500
8
506
14
505
16
500
3
495
20
512
17
510
15
496
5
493
-2
499
9
504
22
496
12
518
15
501
12
501
-1
499
12
505
-5
485
8
508
-2
487
1
476
10
515
11
499
10
502
21
504
13
522
10
503
9
495
12
505
8
509
21
505
9
506
10
503
12
499
2
497
4
491
4
486
19
507
-4
497
8
487
6
500
7
502
16
490
12
501
8
488
5
497
4
485
-2
514
9
510
15
528
15
482
1
490
1
485
3
508
17
514
20
508
21
514
-5
487
5
496
12
501
11
507
19
503
4
494
5
493
-5
495
16
496
19
511
16
509
21
516
15
500
2
496
5
493
0
497
1
502
14
493
11
505
7
508
-2
495
-7
471
-13
489
-2
476
13
510
16
497
7
500
-5
494
0
493
7
503
17
517
15
502
11
512
17
490
9
509
7
501
17
504
9
490
8
499
8
506
14
496
3
503
4
499
8
496
6
510
19
511
14
510
7
497
5
492
10
507
13
518
18
517
30
523
11
500
5
493
10
503
8
512
28
513
21
502
16
505
6
502
4
492
-4
492
17
515
3
496
3
503
5
506
5
504
4
495
-2
489
11
501
18
505
20
508
26
517
14
491
12
508
-1
496
16
498
8
501
17
494
8
508
8
511
4
505
5
509
13
500
14
513
17
502
21
511
21
509
10
503
18
500
24
505
18
521
19
496
15
494
12
502
-3
501
13
508
6
508
6
498
3
514
18
502
4
498
5
507
11
498
8
503
13
504
15
515
10
504
18
506
-1
499
12
507
10
505
11
501
13
500
11
501
18
498
26
517
13
509
12
509
9
499
15
503
17
528
28
502
21
509
17
508
5
491
13
502
15
523
27
535
34
506
18
504
9
498
14
510
11
508
28
500
15
517
8
498
2
484
5
483
1
507
21
493
13
517
30
512
22
502
16
519
16
490
10
508
22
509
26
517
15
507
10
501
6
506
11
506
9
504
6
494
8
507
5
493
3
501
11
501
15
517
16
510
16
495
15
511
20
505
20
519
18
514
21
506
13
501
3
505
7
486
12
502
13
501
21
515
7
512
17
503
15
512
27
517
14
506
8
499
6
503
13
503
12
505
18
502
6
498
7
502
15
508
18
504
11
526
5
496
12
516
27
501
18
521
28
500
10
512
11
502
2
497
17
510
20
518
18
505
17
511
2
496
14
503
20
510
19
516
26
514
9
505
20
502
5
494
-1
512
11
499
20
518
19
518
20
512
15
503
5
493
14
506
14
511
27
532
30
507
16
513
15
496
14
506
19
512
24
504
11
509
15
490
8
501
15
512
6
512
24
504
12
502
6
497
20
514
8
507
17
510
6
502
15
512
16
505
21
504
14
511
4
485
10
510
6
502
9
506
6
518
8
503
17
499
2
490
5
496
13
507
27
521
21
516
16
505
3
494
11
499
9
506
2
505
19
521
11
490
5
499
-2
494
0
507
10
493
18
504
15
503
26
523
25
517
17
512
14
503
-3
498
7
506
15
507
19
512
6
498
11
501
4
488
2
493
7
502
11
490
26
525
27
513
18
504
11
500
15
527
23
525
18
518
23
516
14
512
19
505
9
502
8
503
14
500
13
511
16
497
14
501
2
497
7
505
12
504
11
498
12
513
11
511
11
499
15
504
6
498
10
517
15
504
18
514
10
501
10
487
0
506
7
501
15
508
16
521
5
493
13
506
0
495
15
498
20
504
10
496
0
503
-2
484
6
508
12
512
12
499
9
505
3
495
5
494
10
498
8
516
10
503
9
515
14
508
5
503
22
518
11
506
18
506
16
506
12
510
21
516
15
511
22
511
13
497
4
490
10
498
8
503
7
494
10
501
-6
487
1
502
2
505
12
500
23
513
12
494
3
509
6
506
15
506
17
514
22
509
16
509
8
494
4
498
11
489
14
511
12
506
20
499
12
499
10
511
12
502
7
510
24
513
7
500
26
497
12
510
10
497
9
516
9
508
18
514
24
506
21
506
5
501
6
491
20
515
20
523
33
533
32
524
18
507
9
500
10
502
14
509
27
522
22
513
10
512
11
494
5
502
17
504
6
493
17
508
18
526
13
524
11
500
10
499
9
505
16
518
29
512
0
481
-2
496
9
506
27
519
31
519
27
506
20
486
15
503
6
508
29
517
27
520
18
500
9
506
-2
488
9
499
15
511
23
510
11
500
14
509
8
498
10
509
28
511
30
531
32
514
23
515
8
505
12
504
12
506
17
513
12
502
18
503
18
503
10
493
0
489
5
508
25
511
21
524
17
501
17
504
10
512
22
507
17
509
25
512
8
499
3
489
7
488
-7
489
-8
499
12
508
6
505
18
505
15
504
4
501
7
501
16
510
22
522
37
527
17
507
9
510
1
486
10
505
24
508
22
534
23
507
8
487
5
505
15
501
15
504
15
513
29
516
24
527
15
502
16
498
0
515
17
511
27
511
15
516
22
512
10
500
18
515
32
532
27
512
22
512
15
513
8
502
15
494
22
516
22
506
20
517
20
506
7
511
9
503
12
510
10
507
18
522
26
502
20
516
13
501
5
494
13
505
12
509
24
494
13
515
13
512
13
502
4
508
5
511
26
522
22
512
19
511
15
498
14
513
15
506
19
518
27
517
30
512
12
500
7
482
-3
480
1
495
20
508
19
503
18
489
5
484
1
494
10
507
15
522
21
539
23
506
16
504
-1
492
5
495
18
508
23
518
21
511
13
510
10
504
7
503
12
499
8
510
15
504
14
518
17
504
15
498
5
505
4
495
8
497
18
513
16
509
12
517
18
518
6
511
21
506
15
508
18
519
22
510
6
512
15
503
5
501
13
527
23
512
22
507
14
506
16
499
5
503
20
506
17
513
25
519
30
523
15
503
7
500
15
512
16
495
27
524
10
504
15
511
7
508
9
503
14
495
24
513
17
515
17
516
13
513
20
514
18
506
20
506
18
494
19
512
14
515
35
510
13
505
16
522
-3
483
8
505
3
499
20
502
8
512
7
506
4
513
22
516
17
510
18
512
9
499
16
509
9
501
21
508
21
485
4
512
16
493
3
501
20
500
14
520
6
509
11
507
9
510
1
504
6
501
10
490
12
517
15
501
16
526
21
501
6
493
7
499
14
506
21
495
27
530
21
515
10
494
6
509
5
486
10
516
27
508
20
517
24
508
1
517
12
502
4
507
12
519
21
503
18
497
15
494
1
498
12
502
12
510
19
506
19
508
17
500
14
495
5
500
7
508
16
520
31
526
28
519
5
506
16
493
15
513
15
504
22
534
37
525
26
522
10
507
11
498
13
500
20
515
25
507
22
511
13
494
13
491
13
515
18
504
17
501
22
513
18
512
15
510
11
516
14
507
20
520
19
492
14
511
16
501
6
507
4
498
12
496
14
509
21
521
16
506
13
509
18
499
14
504
19
519
19
505
14
508
8
492
13
490
6
504
9
501
14
503
17
501
7
497
5
505
13
516
17
504
18
519
32
524
21
513
16
507
7
513
18
506
7
505
25
521
18
511
9
491
13
511
1
500
9
499
19
524
22
514
20
492
5
515
17
499
9
508
22
517
13
509
14
509
17
510
8
493
11
508
26
528
18
510
21
526
13
501
8
516
16
516
23
505
11
513
19
519
15
511
9
495
-1
502
12
502
21
499
12
505
10
502
9
503
11
517
14
490
8
518
30
518
16
485
21
504
5
500
13
515
14
506
22
519
20
507
12
520
14
513
20
499
21
522
7
501
20
500
15
501
21
513
27
490
12
511
18
502
13
512
16
508
19
514
6
496
4
511
15
512
26
504
15
514
11
497
7
501
17
512
18
507
19
498
11
508
15
491
8
523
12
507
20
508
7
502
6
491
11
513
15
505
22
512
15
493
10
511
20
502
23
515
22
514
20
504
11
483
20
506
9
509
23
510
23
512
18
507
14
505
4
499
18
515
11
496
19
519
22
492
13
511
21
512
20
514
13
500
3
493
12
511
17
507
24
519
21
504
14
517
18
499
6
501
15
491
19
507
16
511
18
507
11
506
31
516
26
507
6
495
4
493
15
516
14
508
20
504
6
491
12
511
17
502
15
525
16
490
17
525
20
508
21
507
6
510
15
490
22
503
15
502
31
521
27
528
27
522
16
509
6
498
10
502
13
502
20
504
16
502
8
511
4
492
13
500
10
506
19
497
21
518
14
510
25
512
9
505
15
516
18
500
17
520
25
509
20
504
19
507
8
513
6
517
21
517
20
516
8
512
15
498
3
502
10
498
20
506
30
526
27
518
16
508
15
500
9
508
18
514
31
521
17
518
17
507
8
515
22
503
18
516
21
510
12
509
16
503
17
518
17
503
17
512
29
511
24
516
33
512
25
520
25
511
18
495
9
510
26
502
25
512
21
503
21
516
15
495
21
502
11
503
21
511
22
508
27
524
21
526
27
514
17
517
14
503
16
508
10
506
13
509
24
502
4
493
5
495
17
504
20
509
17
510
23
508
16
505
10
500
17
498
26
516
20
501
14
508
21
512
11
510
21
500
18
528
23
500
20
523
17
503
8
503
14
504
26
507
26
527
29
506
14
499
7
488
2
503
16
500
18
511
16
516
23
504
12
499
8
492
12
510
10
514
32
526
29
521
26
517
18
510
11
495
10
485
10
511
26
518
20
506
19
514
0
489
8
490
2
496
14
513
26
509
18
507
19
502
10
508
29
523
30
525
21
505
24
513
12
500
4
497
12
506
13
508
13
512
24
509
21
506
7
508
11
503
12
522
27
506
22
502
22
509
14
507
9
474
13
502
23
509
23
505
16
508
17
512
14
505
15
500
7
513
18
514
26
511
27
509
23
509
15
514
15
496
6
504
8
506
22
512
14
513
16
493
9
500
16
502
12
507
25
505
19
513
17
502
23
511
3
495
13
517
21
511
14
517
26
497
6
493
18
511
10
503
14
510
30
513
39
507
23
501
23
503
21
511
19
525
36
519
17
513
17
508
0
499
-1
500
10
497
5
493
11
517
11
505
13
498
5
491
11
494
22
502
18
515
29
505
10
499
14
500
2
508
3
491
12
504
14
503
11
512
12
509
3
498
8
515
21
534
25
524
32
522
17
496
11
505
10
507
19
515
13
505
12
511
10
499
0
490
10
508
5
496
12
516
6
502
16
499
13
510
8
499
16
508
14
514
29
526
32
515
11
510
13
499
3
506
18
516
25
511
36
523
14
499
4
490
-2
501
3
514
30
533
32
514
15
485
-7
483
-4
492
1
505
17
511
30
529
31
503
5
491
-2
490
11
515
27
519
29
532
37
532
23
521
7
501
8
497
4
502
19
515
27
514
31
520
2
494
-2
492
1
498
3
507
18
515
23
522
16
520
0
486
9
506
13
511
20
514
27
520
16
507
14
512
5
485
14
510
13
521
35
519
26
518
25
498
10
496
9
506
14
503
22
524
35
523
23
511
7
492
-1
482
3
499
16
517
24
512
18
514
7
501
8
506
8
501
25
515
23
531
31
517
14
503
3
499
6
510
18
517
17
512
17
506
17
522
13
496
12
507
13
523
15
514
26
532
24
499
10
502
9
497
5
511
26
512
19
506
12
517
24
507
23
511
20
516
3
495
12
521
25
511
18
518
20
504
6
489
3
485
10
502
10
515
20
520
28
522
19
514
9
496
9
507
9
501
12
515
16
511
16
494
19
534
18
514
13
504
11
506
15
506
21
509
14
505
16
503
4
488
7
492
11
500
20
504
22
503
14
514
21
508
6
507
18
511
17
514
27
508
20
509
17
505
24
501
-5
500
9
500
14
502
9
502
16
494
9
516
14
506
6
498
7
517
10
493
6
505
17
519
12
499
17
510
8
513
18
503
14
507
22
518
17
509
3
504
12
501
13
501
17
516
26
528
19
500
9
501
1
499
0
486
7
501
8
502
19
513
17
500
20
517
1
502
9
496
16
513
11
515
28
507
13
510
21
496
11
506
12
502
11
505
7
504
6
499
4
499
7
511
19
509
12
522
20
512
12
507
14
508
16
502
23
508
18
525
19
516
17
502
12
496
9
496
10
505
20
504
18
490
17
515
16
507
11
505
14
498
17
503
10
500
13
506
11
504
0
500
-1
491
9
505
11
514
24
512
16
511
12
499
7
503
10
500
19
510
20
503
24
524
25
510
12
509
8
486
-1
498
3
503
9
498
15
518
18
499
14
493
10
493
0
498
5
498
11
512
12
491
5
497
17
505
8
506
16
512
5
492
1
506
9
510
6
508
12
512
16
512
17
502
18
495
7
512
18
514
21
513
20
509
15
506
21
509
9
503
13
491
10
528
14
496
9
513
8
508
9
506
11
508
15
495
8
511
16
504
8
505
10
513
17
504
7
506
7
491
8
493
3
496
11
498
8
509
23
515
5
504
12
500
10
501
8
505
11
504
18
519
32
533
18
508
18
505
-1
497
11
501
8
509
6
513
8
495
13
502
15
490
10
506
22
508
10
506
10
508
14
503
12
509
16
514
10
526
8
479
12
507
6
488
6
499
11
507
5
498
3
493
11
510
19
517
25
515
13
500
10
507
18
514
16
509
18
502
18
502
14
500
4
494
1
510
5
502
5
512
16
499
10
504
7
501
9
501
18
505
7
506
17
517
15
513
20
520
16
515
12
502
14
500
12
497
9
507
18
501
11
512
5
502
6
498
1
502
17
504
22
519
26
513
6
507
8
507
10
498
5
498
13
502
23
505
19
512
18
520
10
507
21
524
13
514
26
511
21
521
20
527
22
512
18
500
19
513
10
499
16
510
6
496
5
494
9
500
7
490
5
515
10
512
8
504
13
496
-1
488
10
500
7
524
25
513
14
522
0
493
-3
495
-3
497
16
517
23
506
6
510
-4
491
9
505
2
507
16
510
23
531
15
493
4
501
8
500
14
508
11
506
10
505
18
502
15
505
15
494
4
489
0
495
2
511
20
526
18
505
12
500
13
487
7
497
11
515
17
505
27
534
16
502
18
483
2
495
11
502
13
495
18
517
15
500
14
504
2
504
13
497
10
515
17
515
22
516
20
507
0
487
1
498
13
502
20
515
13
512
23
503
13
486
-1
499
12
499
12
515
22
513
26
524
17
508
20
507
15
501
3
508
26
515
26
504
17
509
20
506
-3
486
3
490
6
501
18
516
31
523
26
510
4
503
16
510
6
521
31
522
27
539
26
520
26
508
1
485
2
490
8
496
26
508
26
512
32
498
4
505
2
482
-1
495
6
516
28
513
19
506
22
508
-7
477
-7
499
5
515
26
512
26
508
17
515
6
499
7
497
18
513
17
515
26
529
35
519
17
505
13
499
-1
490
23
513
22
526
21
511
16
509
17
503
5
502
12
508
29
514
26
517
24
516
17
498
11
510
13
508
17
507
15
511
18
503
18
512
17
502
12
501
14
514
19
517
16
504
22
508
22
510
17
506
16
516
17
515
20
506
16
513
7
485
0
493
1
505
8
501
14
514
-2
492
-9
471
-5
487
0
502
12
494
4
487
-9
483
0
502
4
503
25
514
23
524
17
509
22
508
3
496
20
503
16
514
31
515
34
521
30
513
21
508
15
503
6
510
21
502
36
528
36
510
37
506
13
489
9
492
17
511
22
516
23
510
6
492
-6
497
-10
486
1
507
3
515
4
510
8
524
4
504
-8
510
-6
501
-4
520
1
487
7
507
10
520
-4
495
5
505
-1
492
7
499
6
499
11
506
7
493
2
494
2
498
7
502
9
502
7
490
9
486
2
508
14
489
15
508
13
503
12
497
24
510
32
502
21
502
16
496
11
497
15
505
22
518
26
508
23
503
14
487
1
496
10
495
25
508
23
509
13
492
7
496
13
493
11
491
6
490
18
504
17
512
13
495
13
506
8
501
2
492
0
485
15
514
24
513
23
520
23
513
3
505
10
506
11
526
25
524
18
537
20
499
2
498
-6
487
0
482
8
518
15
514
19
482
4
497
-6
490
6
496
17
516
18
526
23
507
12
499
7
491
6
499
16
506
13
501
22
512
37
505
41
510
29
501
33
506
25
514
27
506
13
510
14
505
-3
498
-1
499
-5
494
1
505
-5
513
-12
495
-17
489
-20
502
-8
511
-10
517
-4
506
5
515
1
510
6
511
5
518
6
515
3
514
11
509
2
498
-4
486
11
496
9
496
10
495
13
492
21
485
17
478
21
464
14
485
17
492
26
509
20
507
13
506
9
482
16
492
12
506
24
500
21
504
23
522
14
508
7
510
3
502
5
498
19
524
13
518
8
506
5
493
-6
476
-2
491
8
491
18
481
16
480
11
483
7
492
24
497
46
517
87
519
89
528
60
510
51
509
33
511
21
518
24
517
15
504
-3
517
-15
487
-27
491
-25
503
-25
511
-16
546
-10
546
-17
530
-22
506
-22
497
-25
486
-8
494
-3
506
7
514
-8
501
-3
482
-4
481
14
509
28
510
32
520
15
522
15
507
7
519
12
518
21
526
23
519
14
509
6
491
4
483
20
475
34
493
49
478
65
476
47
473
45
467
46
496
32
477
42
484
26
486
28
503
48
488
47
489
36
487
30
493
27
496
33
498
21
510
16
491
13
497
1
503
-4
503
-1
528
36
505
36
501
18
488
-4
497
-15
507
-50
515
-61
490
-69
498
-75
494
-55
527
-43
528
-39
516
-57
516
-58
513
-67
500
-89
499
-68
491
-70
500
-70
507
-49
499
-38
528
-32
494
-39
497
-19
494
-9
502
6
496
15
494
15
486
13
489
21
496
26
506
29
508
40
500
48
506
54
493
51
475
62
500
83
487
77
490
87
495
98
493
86
486
87
467
74
479
78
492
81
515
69
530
70
552
57
511
74
512
77
529
90
552
110
550
120
564
119
546
103
527
91
502
76
498
59
488
57
489
42
498
16
489
-10
475
-33
468
-53
474
-29
478
-16
506
7
509
-7
481
-10
496
-28
495
-48
493
-69
493
-90
505
-93
498
-108
508
-108
489
-106
476
-97
481
-104
464
-101
473
-88
475
-86
478
-83
482
-85
464
-60
476
-55
497
-36
513
-33
503
-28
520
-29
550
-18
600
-1
622
16
623
28
580
32
542
41
524
59
510
80
507
88
508
99
509
81
471
83
454
81
433
75
440
73
446
71
434
56
450
57
452
47
483
64
499
62
520
60
505
54
484
40
482
34
480
34
470
40
501
34
499
18
491
14
495
8
504
14
509
25
521
17
517
17
520
-3
501
0
502
-8
508
-2
521
-6
519
-24
511
-37
515
-25
505
-35
508
-21
517
-2
521
0
524
18
519
10
508
-7
484
-2
514
16
501
29
528
29
509
21
502
13
491
23
508
25
482
19
511
22
488
1
487
8
506
1
496
23
505
9
490
6
498
15
502
12
504
15
509
29
509
22
512
18
483
13
504
13
496
15
499
9
494
6
500
10
509
10
490
12
503
14
486
5
496
7
518
19
508
13
510
7
505
-9
495
-6
476
28
509
74
517
114
517
130
508
132
495
120
491
88
509
69
523
22
521
-22
509
-72
502
-100
498
-107
505
-113
505
-118
492
-80
495
-53
467
-39
488
-41
493
-30
489
-3
497
17
499
17
495
-13
510
-46
488
-41
499
-48
508
-33
513
-26
495
-32
505
-35
485
-24
484
-34
492
-14
499
-2
500
7
501
17
505
17
505
23
501
31
500
38
519
53
514
60
522
44
497
51
505
48
511
58
517
67
529
73
552
69
548
59
539
43
486
57
496
59
477
68
490
63
476
43
479
35
491
37
502
40
516
32
491
21
479
11
478
20
483
8
493
19
485
33
505
46
522
63
504
45
502
34
498
22
501
21
539
22
526
17
536
-1
509
-22
504
-25
497
-9
526
18
521
18
519
0
508
-14
494
-24
494
-22
505
-10
516
-37
504
-52
507
-64
501
-65
510
-66
505
-59
495
-42
516
-27
527
-23
505
-33
502
-30
504
-31
486
-12
494
8
501
22
496
24
506
25
486
31
490
19
514
35
497
37
509
57
503
41
485
37
519
34
491
37
511
41
517
41
504
42
506
31
510
34
501
33
513
41
518
29
503
31
515
32
505
16
495
20
506
21
506
15
485
17
506
13
507
18
503
23
502
9
482
3
498
11
494
12
503
12
499
5
503
14
520
13
515
15
495
6
493
-5
480
2
496
10
500
13
507
21
515
3
511
7
497
3
501
1
507
13
515
14
506
20
498
1
510
3
491
-3
487
9
513
16
516
28
521
15
495
5
485
4
509
13
502
20
501
29
525
23
498
14
493
14
507
19
503
28
518
38
514
30
507
24
505
24
502
18
490
15
513
15
519
29
506
45
513
65
490
97
494
121
498
138
517
121
507
94
508
52
501
1
492
-36
495
-63
512
-73
526
-78
528
-80
502
-81
498
-85
487
-73
495
-52
506
-33
502
-28
501
-38
506
-33
508
-25
509
-26
511
-10
519
-2
511
-7
516
1
500
0
521
6
509
29
543
24
540
35
515
31
517
39
513
47
510
48
502
45
494
45
477
39
480
52
492
49
505
60
498
46
514
39
500
59
513
50
505
49
498
24
496
34
479
24
495
30
514
27
484
12
502
15
493
21
511
36
532
28
537
35
524
20
511
12
496
1
499
9
503
8
500
8
496
-3
496
-4
491
-10
491
-10
501
-14
492
-14
515
-17
506
-3
505
-11
510
-14
502
-18
495
-10
506
-1
505
9
507
7
497
2
504
-3
495
-3
498
12
511
24
491
56
529
77
508
78
518
82
517
68
492
87
514
71
512
61
513
69
507
100
516
102
518
82
503
58
495
43
495
19
490
9
491
-12
493
-24
501
-49
492
-71
498
-69
521
-79
505
-77
504
-79
498
-79
500
-81
484
-77
508
-69
495
-66
518
-60
506
-58
492
-39
498
-11
510
31
503
78
504
89
526
84
520
73
503
47
498
31
515
24
518
26
524
18
518
1
505
-8
505
-4
509
-5
526
-4
512
-15
511
-4
519
-10
505
2
514
4
506
1
501
-9
496
-2
483
10
493
14
504
15
509
15
491
3
489
10
501
28
509
36
518
23
508
30
511
25
491
24
504
26
504
42
507
36
506
42
493
47
497
38
486
38
495
40
492
39
496
42
504
41
505
49
511
29
504
23
494
15
500
18
495
19
497
29
504
14
485
8
485
10
488
6
501
20
515
14
517
21
508
9
485
9
509
4
508
10
522
18
516
19
503
11
519
-6
493
-4
497
-1
500
13
515
10
522
13
510
11
510
10
512
10
508
15
497
13
507
13
504
7
509
4
504
7
500
6
518
4
504
19
516
11
527
30
514
18
512
12
508
8
503
9
515
16
519
27
520
17
506
11
504
1
504
15
508
-2
503
28
506
13
505
10
509
12
511
11
494
17
502
5
509
26
506
23
512
7
493
12
505
13
498
21
509
18
508
21
525
22
506
16
512
14
501
11
504
14
501
24
520
22
507
6
518
19
493
8
494
8
500
13
500
20
505
29
518
20
504
21
491
13
502
18
496
34
510
39
522
31
495
36
507
33
506
24
530
38
517
35
525
51
515
56
524
55
560
54
547
53
541
47
514
58
522
47
497
42
480
23
481
20
476
12
480
23
505
61
495
74
499
132
485
197
502
172
499
172
497
130
518
65
513
-13
492
-57
492
-77
504
-96
504
-112
517
-133
521
-144
509
-147
505
-155
523
-203
553
-202
549
-182
540
-168
517
-153
497
-126
459
-66
437
20
440
85
467
142
490
150
498
165
466
201
440
231
465
277
519
276
539
258
552
228
549
216
544
205
580
167
594
127
585
74
563
19
535
-37
515
-86
509
-140
495
-172
497
-176
499
-202
503
-218
503
-220
494
-229
492
-223
501
-211
542
-213
531
-208
508
-192
510
-184
488
-171
485
-92
520
7
505
138
508
199
483
200
502
219
499
249
511
234
515
220
518
185
499
147
491
108
483
94
490
63
487
31
487
-1
481
-6
486
-30
498
-14
478
-28
501
-35
529
-42
542
-67
532
-88
505
-97
519
-112
509
-97
517
-87
498
-54
522
-34
495
9
493
68
497
120
504
168
517
163
515
142
510
132
519
103
516
79
504
39
500
32
506
45
519
71
507
66
511
56
501
57
511
48
493
60
523
57
507
26
509
23
506
12
519
9
514
26
517
41
514
26
517
6
503
-23
503
-32
502
-54
508
-47
513
-58
503
-54
497
-52
502
-40
502
-35
518
-15
508
-21
512
-23
514
-40
497
-31
514
-25
517
-8
515
-2
508
-4
496
5
487
17
496
45
503
50
522
57
509
56
497
47
516
42
498
53
514
51
511
53
518
35
505
43
507
22
490
34
512
31
504
39
517
44
502
62
499
41
507
48
504
54
527
65
518
46
541
30
491
-5
503
19
491
40
510
31
529
-10
515
-33
500
-45
517
-43
511
-42
518
-24
518
-21
523
-22
530
-23
512
-46
508
-45
512
-39
491
-37
515
-9
505
3
499
-1
500
-3
500
1
504
25
508
34
522
51
521
61
518
50
502
59
498
57
505
78
526
70
501
67
508
66
481
39
493
34
500
41
507
31
513
34
498
14
508
14
516
22
512
27
530
35
511
43
515
55
513
55
516
55
518
47
501
45
484
42
489
47
504
55
504
54
498
42
514
36
490
47
522
49
524
44
528
38
511
26
507
17
504
14
508
22
503
9
500
-5
494
0
491
0
496
-3
504
17
502
10
506
25
496
19
503
33
518
28
505
20
492
25
502
27
495
17
521
13
502
12
493
10
499
13
498
12
503
10
503
11
515
16
506
11
504
14
500
8
505
1
512
3
498
3
511
16
515
13
507
4
498
-3
501
-1
505
11
510
17
527
13
506
6
490
1
500
3
505
10
513
14
519
16
513
3
509
11
523
3
497
4
495
1
500
10
511
27
513
26
527
20
513
16
506
7
510
11
512
25
517
32
517
26
504
-3
496
4
502
8
504
12
512
16
491
6
499
-3
490
10
508
16
515
26
521
25
515
23
506
12
509
9
499
22
501
9
511
9
508
11
507
16
514
9
505
19
503
4
502
22
530
16
508
26
516
13
505
21
510
22
503
17
513
17
499
9
506
20
504
19
500
9
504
-3
496
4
487
6
505
9
506
19
499
13
514
6
508
17
511
18
516
15
503
16
505
25
510
14
506
10
506
32
511
51
508
61
495
61
500
66
506
55
519
54
529
26
512
2
493
-6
497
22
499
18
509
2
491
-27
494
-20
487
-21
503
1
504
18
508
24
508
43
508
22
508
19
523
10
529
1
538
1
530
2
520
-8
506
19
491
37
488
45
491
40
500
35
502
32
502
31
504
23
520
10
536
4
545
-26
544
-44
525
-32
514
-5
522
39
497
68
501
94
475
81
486
86
464
101
476
154
495
183
502
169
499
152
533
112
538
44
557
-25
577
-65
573
-77
548
-141
503
-226
475
-236
444
-205
421
-167
424
-154
423
-161
439
-154
457
-129
454
-106
500
-47
510
27
526
25
536
6
548
14
542
33
553
61
537
77
539
52
537
42
514
47
497
66
490
76
505
75
511
60
520
48
487
53
483
102
471
61
481
33
498
-1
514
-22
491
-60
507
-65
516
-67
528
-56
543
-41
547
-17
536
-1
544
17
539
15
513
13
495
33
533
42
520
75
528
74
526
81
518
81
502
83
508
91
519
103
517
119
501
107
511
123
495
127
510
114
499
105
492
110
492
93
486
75
484
53
471
45
468
23
476
15
475
-3
473
-9
485
-13
514
-24
534
-30
566
-42
551
-47
544
-37
536
-37
521
-12
529
11
537
31
523
18
517
1
487
-11
497
-17
506
-13
503
-2
510
12
507
10
495
1
523
31
518
57
521
99
506
142
498
152
496
135
503
129
500
177
495
191
491
185
495
158
480
94
498
15
499
-73
503
-167
503
-208
503
-253
510
-287
508
-286
488
-235
497
-207
498
-236
501
-280
489
-244
496
-210
483
-147
495
-117
494
-79
501
-56
517
-30
514
0
523
25
544
45
533
47
519
35
503
48
502
66
516
83
513
105
517
116
500
118
494
128
511
145
536
137
533
150
539
142
539
125
508
115
505
105
504
117
515
105
503
100
492
91
501
82
469
80
496
79
501
72
510
67
490
53
503
40
505
24
511
16
503
28
520
33
533
40
516
31
505
30
495
24
495
27
508
45
503
36
504
40
501
29
497
40
491
32
502
49
511
44
517
47
497
45
523
30
508
25
531
11
503
5
518
-4
505
1
541
-6
548
-16
559
-8
527
-9
528
0
485
-1
479
-2
465
25
441
46
447
90
456
106
475
135
487
194
474
270
495
277
506
215
507
158
503
101
514
77
497
13
520
-34
510
-64
515
-92
525
-157
533
-206
562
-237
521
-292
499
-327
506
-318
528
-301
561
-258
567
-231
543
-221
500
-187
506
-131
517
-91
559
-56
541
-34
522
31
478
125
441
144
433
123
479
120
467
109
451
109
442
106
445
82
434
57
435
32
459
39
508
56
551
85
552
128
583
188
539
257
538
352
559
462
571
512
556
463
536
385
503
326
468
258
444
193
478
169
485
187
492
162
506
107
512
20
503
-68
539
-178
546
-272
537
-349
515
-431
496
-460
485
-462
485
-450
493
-450
497
-489
530
-508
551
-499
569
-461
545
-419
521
-337
556
-231
595
-143
569
-58
498
13
436
111
399
193
389
253
397
319
400
345
416
366
444
380
460
386
489
346
497
297
532
238
564
177
556
111
568
47
554
25
560
26
559
21
540
5
527
-3
519
19
505
30
502
52
500
100
501
104
488
48
503
5
522
-36
547
-57
508
-88
461
-124
469
-110
492
-88
495
-98
472
-92
469
-52
478
-5
505
31
540
37
564
41
571
80
556
76
565
93
555
154
516
231
510
263
490
290
490
255
523
183
507
104
535
19
515
-53
533
-94
514
-136
530
-164
519
-175
496
-192
494
-204
507
-193
471
-182
483
-169
476
-161
490
-135
506
-101
511
-77
494
-49
460
-30
430
-2
421
23
443
47
499
66
610
80
609
92
555
107
542
91
485
99
494
89
452
109
439
131
444
143
492
150
543
128
533
94
500
54
459
15
443
3
454
-15
441
-22
456
-23
469
-14
490
-12
491
4
523
11
530
17
548
18
552
0
564
13
542
17
544
35
544
44
545
28
544
36
536
32
526
21
527
4
507
2
520
8
520
12
534
-7
495
-14
519
-18
501
-35
495
-39
495
-50
483
-62
508
-66
477
-74
481
-61
495
-52
504
-28
500
-2
501
13
510
10
506
21
514
48
509
46
500
54
509
64
502
67
504
69
495
71
483
74
489
74
501
83
498
92
487
91
515
88
517
92
517
80
498
72
516
62
491
61
490
38
501
45
502
53
523
52
513
49
497
39
486
56
489
48
510
62
503
64
520
63
520
96
524
133
538
178
549
193
533
175
523
119
510
69
483
8
486
-31
534
-72
561
-86
527
-54
503
-40
479
4
474
41
506
63
559
51
550
57
499
46
478
27
481
-3
514
-25
524
-48
518
-58
505
-86
508
-93
487
-109
494
-110
487
-149
484
-155
539
-148
579
-123
580
-102
560
-31
528
56
504
147
457
244
437
332
430
400
446
392
439
327
448
228
490
124
521
27
518
-118
496
-200
485
-247
490
-258
501
-244
552
-165
564
-102
535
-38
518
99
515
130
525
114
529
98
517
67
507
28
482
-13
493
-46
492
-96
475
-147
494
-212
488
-224
497
-218
512
-202
524
-166
502
-89
516
-35
508
22
528
16
537
33
516
86
515
169
508
222
525
271
513
298
495
310
502
301
501
263
497
177
471
181
487
211
483
175
497
85
523
23
529
-69
534
-137
524
-196
501
-230
502
-258
488
-302
496
-320
505
-345
499
-327
478
-291
463
-236
497
-159
494
-84
496
-24
529
13
534
21
541
48
518
75
528
134
564
169
581
242
544
360
505
485
470
586
450
532
437
430
431
355
442
352
430
341
423
330
418
232
436
174
452
112
491
34
519
-19
538
-70
562
-90
554
-153
583
-203
582
-266
566
-455
540
-557
525
-580
511
-595
515
-567
522
-513
524
-462
505
-431
524
-412
517
-426
520
-355
556
-257
523
-184
522
-101
487
-15
481
77
469
163
476
204
470
266
475
293
478
292
502
283
479
281
477
266
486
243
489
237
496
234
507
241
516
315
512
299
540
263
534
219
525
193
519
202
521
205
510
207
521
193
529
165
510
150
523
120
512
54
528
50
539
85
509
129
520
145
513
119
498
65
507
-30
517
-105
514
-171
514
-212
518
-264
493
-295
503
-341
502
-361
489
-341
489
-289
477
-257
466
-224
470
-190
470
-141
466
-109
506
-60
535
-19
548
-1
532
18
519
31
523
71
529
102
526
131
507
143
504
163
509
159
510
171
519
173
532
169
575
152
564
154
550
139
513
149
531
163
589
184
578
179
530
201
466
233
418
278
398
289
394
257
384
207
396
231
395
274
413
233
440
114
471
101
504
67
539
-37
551
-119
600
-170
630
-213
623
-261
605
-308
596
-372
563
-416
513
-456
489
-471
463
-472
461
-511
469
-492
471
-420
460
-330
462
-232
463
-158
471
-78
479
-11
494
52
496
77
499
116
504
129
498
166
500
178
505
190
499
198
502
204
490
223
490
214
503
231
506
239
510
242
517
237
503
219
503
197
521
202
532
184
532
164
530
148
518
126
518
109
512
86
511
64
519
59
520
64
516
64
516
65
507
71
518
52
504
41
508
18
500
14
516
0
516
-11
504
-13
512
-11
508
-5
498
-1
515
6
526
5
512
3
509
-13
503
-42
495
-53
486
-61
500
-53
496
-59
498
-57
508
-43
518
-49
491
-50
482
-53
489
-46
494
-31
522
-33
503
-30
511
-21
517
-14
509
-9
514
12
522
27
506
44
510
48
503
60
496
50
495
43
485
43
500
50
495
47
512
34
499
33
501
15
507
28
489
59
470
114
481
156
545
183
571
170
539
157
512
170
480
201
464
199
446
177
427
124
446
74
465
42
475
45
473
7
487
-18
487
-27
511
-94
510
-223
524
-342
528
-402
514
-375
543
-343
535
-310
523
-272
532
-244
523
-203
519
-177
508
-149
511
-106
501
-39
525
15
548
59
556
154
546
216
486
228
436
230
423
277
448
277
472
243
489
192
485
141
519
86
524
34
548
4
559
-1
551
-31
536
-71
522
-84
510
-49
497
2
500
10
514
44
530
149
527
206
515
238
519
188
527
133
522
93
534
45
526
14
527
-16
494
-66
485
-107
483
-93
466
-9
492
113
483
247
468
360
471
404
465
458
483
397
493
350
512
307
483
237
482
113
493
9
488
-96
539
-196
509
-294
487
-375
522
-471
506
-565
473
-614
493
-523
461
-373
402
-267
398
-226
454
-189
505
-165
533
-154
548
-144
567
-141
620
-153
585
-170
546
-183
542
-162
555
-144
577
-124
576
-87
564
-31
539
1
533
23
510
115
503
198
484
220
476
217
461
215
447
195
443
184
420
166
424
167
430
156
435
168
468
196
468
230
505
245
563
253
607
238
591
241
582
202
544
180
531
130
494
81
477
29
459
-7
464
-43
473
-51
460
-70
465
-88
500
-76
483
-17
482
2
503
17
480
29
498
40
497
27
510
16
496
25
505
20
520
20
496
-20
539
-45
532
-48
538
-68
526
-82
523
-100
521
-122
531
-119
531
-107
519
-81
522
-73
509
-52
518
-53
526
-23
504
-12
515
23
495
78
496
150
501
260
501
314
498
301
507
244
510
173
516
99
513
41
528
-28
541
-100
540
-175
499
-183
477
-187
455
-184
445
-162
440
-136
442
-114
463
-86
476
-84
494
-69
502
-68
492
-57
482
-51
493
-37
520
-34
529
-16
516
5
502
49
497
97
499
136
514
163
535
168
523
150
525
152
516
192
524
195
519
148
533
99
525
78
509
66
520
28
510
2
507
-12
510
1
508
-31
489
-62
498
-80
482
-80
510
-53
495
-37
500
-29
481
-24
475
20
483
47
468
53
471
63
504
57
560
55
610
43
614
20
535
-3
495
-2
552
-25
616
-93
615
-121
550
-118
490
-71
444
-63
409
10
405
63
378
112
385
136
409
150
429
177
460
169
481
164
499
126
512
114
512
160
516
167
507
124
489
77
493
42
504
5
510
-118
511
-287
466
-335
485
-337
531
-327
583
-272
559
-175
526
-106
489
-57
465
3
464
62
467
111
477
137
494
124
482
129
483
124
496
115
500
87
525
78
529
51
519
40
500
11
500
5
504
7
525
-14
521
-34
520
-28
506
-18
510
4
502
32
506
49
525
76
531
100
534
135
535
161
529
146
529
142
530
125
528
104
527
77
526
72
528
53
517
25
520
12
516
0
512
-24
506
-28
503
-30
488
-21
493
-10
511
-16
499
-13
499
-1
494
11
495
48
479
112
470
146
478
142
463
114
478
114
485
225
512
395
511
501
502
397
481
335
439
340
445
288
453
125
482
-12
501
-113
506
-219
512
-317
520
-386
527
-460
534
-469
522
-461
510
-482
510
-584
509
-664
524
-632
521
-567
534
-449
525
-354
532
-265
543
-202
530
-135
520
-73
526
-21
509
45
511
90
498
153
506
187
489
211
488
216
490
230
506
245
503
247
505
238
497
243
484
231
482
217
480
200
482
197
487
191
504
188
482
179
486
167
470
150
470
139
469
137
493
153
531
172
520
170
475
145
437
124
448
135
501
162
559
182
521
177
486
199
504
289
544
428
556
472
559
332
553
226
562
175
545
27
544
-111
524
-198
519
-266
535
-333
518
-383
491
-395
482
-388
534
-492
562
-521
549
-419
515
-319
470
-228
444
-161
422
-95
431
-1
478
85
545
156
574
168
510
163
466
92
425
43
410
20
432
-2
430
-1
447
-11
451
-13
460
-34
479
-32
500
-63
531
-133
531
-216
535
-268
528
-275
540
-210
574
-102
584
-7
585
57
581
97
561
113
522
173
517
240
521
266
505
340
501
351
499
337
503
286
493
256
507
227
497
163
502
79
498
-3
494
-73
505
-116
497
-122
506
-116
500
-147
495
-149
483
-130
471
-92
452
-43
496
15
492
79
484
177
487
264
508
291
504
248
496
186
492
106
491
-31
517
-122
496
-173
484
-218
447
-203
455
-159
473
-124
495
-97
523
-67
520
-35
538
-13
535
11
540
13
536
39
543
60
544
55
535
33
526
8
488
12
504
58
496
75
492
70
483
73
488
55
465
60
478
57
470
43
501
51
528
27
561
35
581
23
584
14
559
-5
537
18
517
36
503
50
485
67
453
67
453
68
454
56
480
41
470
19
456
-11
461
-25
469
-29
467
-41
475
-55
477
-60
469
-32
485
9
475
-13
510
-19
504
-2
517
24
512
55
537
78
559
101
576
119
547
97
523
69
532
51
591
29
621
-32
558
-77
501
-47
430
49
420
122
426
183
449
181
481
122
461
36
459
42
449
38
446
-1
476
-31
483
-51
501
-53
516
-54
516
-37
512
-60
523
-192
509
-235
515
-219
499
-196
526
-196
517
-162
518
-122
504
-98
530
-103
571
-99
609
-80
637
-51
579
28
537
141
526
295
524
455
537
461
500
401
488
388
465
333
471
234
462
134
460
60
455
-34
481
-167
483
-287
474
-319
476
-335
491
-279
508
-213
510
-165
514
-125
517
-84
497
-41
512
-5
518
22
523
40
519
19
519
27
515
41
524
51
509
50
505
53
506
77
503
110
503
105
511
132
511
155
504
127
509
75
508
57
518
49
510
42
512
37
501
48
504
51
497
14
495
-49
485
-67
499
-42
493
0
507
24
501
38
479
45
469
54
492
63
502
58
508
57
500
45
498
39
477
48
478
73
493
112
531
143
538
157
525
130
522
105
535
83
527
77
526
51
485
11
491
22
499
51
523
88
536
134
516
104
468
48
428
1
433
-38
462
-46
502
-41
512
-43
500
-51
506
-67
515
-5
519
67
523
42
522
10
520
-14
521
-51
518
-89
504
-110
498
-120
521
-114
532
-93
539
-88
554
-114
531
-115
523
-106
527
-72
520
-2
513
61
497
108
479
135
471
129
483
121
488
88
514
53
501
18
492
-6
493
-10
486
9
472
6
475
41
472
93
470
147
498
144
516
104
489
51
483
-34
477
-99
475
-122
518
-170
555
-231
507
-268
481
-226
506
-170
546
-99
556
-40
533
16
504
66
533
126
486
199
528
210
525
169
539
122
549
77
531
69
542
56
520
57
526
38
518
-3
521
38
489
127
481
182
483
145
477
106
492
124
471
120
475
75
471
36
479
-18
475
-75
471
-136
462
-186
448
-184
467
-161
485
-104
492
-79
521
-115
554
-100
574
-21
560
43
568
89
568
110
526
122
550
125
528
114
488
93
460
83
496
131
553
211
546
252
518
336
475
342
445
337
434
299
430
197
429
43
447
-60
459
-95
450
-131
467
-140
468
-149
492
-188
518
-217
586
-225
580
-183
558
-177
519
-154
503
-164
465
-179
436
-173
445
-142
435
-127
492
-133
496
-124
519
-79
550
1
587
94
600
178
576
306
554
331
542
333
523
296
513
280
507
247
500
219
515
177
503
117
526
23
512
-57
522
-104
502
-143
519
-189
511
-220
509
-201
500
-150
507
-79
525
-46
513
-31
512
-38
520
-30
508
-29
496
-19
506
6
511
-9
496
-39
496
-26
500
-14
492
-23
499
-24
488
-3
494
30
492
61
496
74
485
71
469
74
455
75
488
69
507
52
541
56
558
38
571
41
570
65
539
55
532
58
498
58
486
62
479
66
497
87
480
82
480
76
485
79
466
75
480
80
474
85
480
71
486
52
490
43
479
12
476
7
479
-3
481
2
499
5
513
-1
499
29
503
87
497
163
491
221
518
252
575
246
578
204
546
178
523
160
498
162
465
115
443
53
462
-15
451
-18
443
-3
460
-23
485
-89
508
-138
525
-143
539
-115
532
-106
543
-134
578
-185
597
-255
581
-288
558
-310
543
-332
586
-313
613
-268
557
-212
513
-149
467
-78
447
14
422
114
429
209
442
266
462
262
471
235
505
209
519
151
519
101
534
119
571
110
577
54
564
6
533
-27
536
-29
504
-13
516
2
491
28
484
88
474
64
453
63
475
49
455
38
496
49
491
50
508
-16
494
-71
512
-78
493
-78
507
-104
495
-128
515
-91
556
-64
580
-88
590
-106
544
-99
504
-86
467
-66
413
-34
387
-13
392
19
471
63
515
107
497
142
501
190
507
259
591
311
589
289
617
243
600
254
583
276
550
225
530
173
511
130
513
122
504
116
511
105
519
82
491
-29
483
-110
462
-105
460
-72
479
-42
473
-34
482
-19
473
-27
471
-33
457
-42
482
-55
484
-54
502
-57
518
-52
527
-47
514
-40
497
-31
512
-15
517
9
508
12
501
14
491
28
499
37
512
57
509
70
517
60
503
51
490
32
487
30
502
37
504
32
517
38
513
29
498
-3
497
3
496
-4
513
14
532
15
539
11
528
5
518
-8
507
-5
520
3
529
5
544
10
565
-10
528
-5
518
11
511
17
504
37
511
46
494
62
498
73
471
61
480
58
473
49
489
38
524
20
566
1
541
-14
478
32
482
128
503
196
541
244
562
226
561
215
550
185
520
76
466
-1
408
-32
391
-53
425
-63
439
-40
460
-12
469
21
500
26
541
12
550
-5
545
-49
518
-123
534
-162
526
-170
532
-229
519
-304
514
-290
532
-218
524
-241
531
-224
528
-153
523
-95
506
-80
497
-58
504
20
499
116
502
166
493
163
485
112
511
120
499
245
525
290
523
268
551
170
537
88
521
5
510
-42
531
-79
530
-68
475
48
467
88
455
100
382
134
391
179
442
215
532
190
574
111
532
49
513
62
483
167
488
291
488
296
513
273
570
164
626
66
661
-26
595
-65
543
-116
513
-184
495
-253
479
-330
487
-352
461
-355
472
-318
452
-345
418
-362
400
-340
378
-318
379
-256
421
-162
504
-85
519
-7
533
48
580
90
642
92
662
110
658
142
631
166
581
178
556
188
531
187
497
194
481
193
507
188
486
184
503
178
498
157
478
137
460
119
465
121
476
138
470
149
477
141
473
133
469
109
485
122
481
118
495
108
477
87
485
77
478
71
489
67
494
54
505
55
493
26
516
25
513
14
521
4
523
-5
505
-19
498
-14
519
-11
509
-24
514
-25
500
-33
505
-41
510
-28
527
-22
535
-24
510
-32
511
-49
510
-27
521
-23
517
-30
536
-30
498
-47
505
-42
507
-30
510
-20
523
-25
515
-19
513
-27
506
-27
504
-16
520
-15
509
-15
514
-6
511
-10
506
-15
508
-15
503
-3
505
-2
519
-1
507
13
519
4
502
6
506
-4
510
14
516
17
517
21
501
10
506
5
512
8
511
17
510
13
506
28
507
34
503
29
509
27
510
33
501
30
506
42
516
49
514
55
517
33
501
30
494
26
490
24
499
47
513
49
506
51
515
33
497
24
470
22
480
16
502
43
519
61
528
48
504
51
516
33
481
44
507
43
496
51
516
58
515
46
500
46
511
41
492
43
498
49
509
47
494
50
515
50
510
52
519
52
516
40
509
56
519
56
509
50
508
46
501
38
497
37
519
45
514
40
502
42
516
28
494
32
501
43
498
33
520
42
512
29
485
27
514
33
512
48
510
41
510
35
491
25
505
41
515
32
512
42
539
31
507
28
502
24
512
32
517
37
522
44
519
30
515
29
507
31
520
23
499
26
507
15
503
18
496
15
496
8
504
27
512
14
494
18
514
11
504
22
517
19
517
24
517
27
521
35
532
32
525
30
509
31
517
11
502
13
518
18
507
13
503
8
509
5
496
16
493
16
523
25
500
12
520
0
490
-5
489
2
504
14
512
11
505
11
513
14
517
9
496
0
501
2
506
7
510
11
509
17
507
10
506
6
504
5
509
6
502
14
500
11
508
4
503
-1
498
1
490
-14
500
3
495
4
498
2
505
7
506
12
518
12
507
11
505
4
505
4
516
14
516
15
512
2
496
1
492
0
492
7
513
10
505
11
498
6
505
11
512
11
501
8
508
8
516
22
516
21
518
24
507
10
497
-1
511
6
489
14
505
17
516
22
504
11
507
-2
508
5
494
1
501
20
509
21
499
7
506
9
500
9
495
17
505
10
509
19
508
28
501
28
509
7
499
10
514
14
529
34
526
50
546
73
546
64
549
65
517
64
498
69
496
72
484
69
463
52
474
57
470
48
475
15
486
-17
466
-36
460
-38
457
-13
477
-2
491
1
511
-6
521
-6
516
-16
519
-1
524
29
524
59
518
67
506
91
474
114
466
98
568
84
608
65
594
58
564
50
498
49
458
49
459
44
452
0
453
-44
466
-66
472
-91
522
-104
545
-138
560
-158
606
-163
576
-150
601
-132
649
-107
654
-86
576
-73
497
-63
429
-29
400
2
391
-7
373
-31
386
-60
403
-42
450
-24
477
-14
511
-6
584
0
675
11
704
42
667
74
593
192
552
256
508
280
492
269
452
271
479
251
433
230
460
195
460
173
457
118
471
89
461
53
459
-2
443
-31
438
-69
474
-82
499
-85
509
-101
476
-99
458
-107
444
-101
485
-71
504
-63
515
-86
497
-70
494
-43
496
-14
528
13
544
80
540
175
529
270
514
371
511
425
525
386
524
304
541
207
530
110
528
19
537
-3
554
36
504
75
493
93
480
88
507
101
560
73
525
50
466
48
506
60
554
23
585
-40
601
-69
577
-64
554
-102
532
-178
505
-237
493
-284
503
-318
471
-391
468
-473
470
-505
475
-484
481
-457
470
-380
470
-272
490
-212
538
-129
553
-25
525
89
510
178
505
235
514
276
506
299
518
266
512
242
517
191
505
129
489
67
494
4
508
-28
519
-37
526
-61
536
-99
500
-95
501
-69
519
-20
511
-14
509
5
495
56
512
76
473
100
477
105
471
123
484
142
499
160
507
167
507
160
510
157
479
144
476
155
512
153
551
149
607
124
598
104
533
85
497
75
465
70
440
67
433
47
451
61
456
79
482
105
489
122
515
147
539
170
543
171
547
179
533
152
535
130
525
124
528
142
524
205
502
244
501
188
491
99
509
22
507
-57
505
-203
511
-291
506
-312
482
-346
501
-382
513
-347
509
-351
519
-336
507
-301
506
-255
496
-209
509
-192
503
-151
500
-112
488
-72
489
19
483
102
480
164
485
164
487
181
503
213
507
263
507
258
510
226
495
195
505
170
511
161
527
128
528
96
532
49
533
-2
523
-12
548
2
545
40
536
93
510
164
502
226
486
240
486
194
471
117
473
53
476
-10
478
-50
503
-133
480
-208
452
-245
446
-242
461
-201
474
-165
499
-107
498
-11
503
86
486
139
509
116
499
123
520
202
532
207
566
125
581
50
577
-2
563
-54
559
-134
547
-180
543
-317
540
-415
548
-371
546
-401
576
-383
568
-303
550
-217
539
-132
538
-78
519
-43
508
0
483
8
462
20
467
56
480
87
491
116
531
156
487
181
471
209
504
253
563
289
530
313
493
319
437
306
430
305
392
301
424
271
429
224
419
181
440
161
465
148
473
118
482
93
484
93
511
80
513
84
543
73
547
57
531
31
533
38
540
35
554
19
565
24
555
5
534
-6
529
-16
521
-12
512
-29
502
-25
516
-26
509
-20
523
-21
517
-36
533
-32
517
-28
562
-28
559
-26
584
-32
561
-37
529
-36
556
-40
568
-30
544
-35
473
-24
408
-31
394
-29
367
14
373
95
402
169
409
227
444
232
461
190
496
169
531
136
559
114
590
165
587
256
554
260
532
221
530
211
611
142
594
40
538
-37
484
-130
450
-271
420
-336
403
-324
408
-206
414
-157
463
-200
524
-239
527
-258
526
-212
497
-136
487
-88
428
-86
374
-92
334
-120
387
-149
443
-172
477
-212
544
-230
610
-211
650
-152
653
-96
635
-81
598
-78
618
-84
640
-65
618
-15
619
21
606
59
609
166
623
247
560
257
481
219
472
215
463
244
454
274
417
297
411
311
401
286
374
245
393
223
391
225
426
230
458
315
476
317
516
185
543
78
532
8
559
-88
544
-171
511
-206
490
-246
478
-303
463
-339
466
-344
473
-332
472
-276
475
-244
489
-199
485
-148
512
-115
513
-59
513
12
540
-7
530
-45
533
-42
515
-31
531
-21
539
-14
533
10
523
34
523
29
518
14
509
63
526
133
522
182
525
218
506
253
518
288
522
303
528
298
518
281
502
295
497
298
525
308
515
277
517
246
505
189
496
148
503
104
476
43
483
9
483
-45
484
-87
501
-99
526
-129
574
-174
584
-201
561
-148
514
-53
490
2
466
33
442
19
436
29
440
20
467
41
519
34
623
13
612
41
564
54
550
30
547
2
548
0
526
-18
512
-87
494
-131
468
-125
447
-148
446
-181
437
-170
469
-175
493
-161
499
-152
483
-137
480
-135
492
-123
487
-81
494
27
502
116
494
120
501
85
506
69
495
57
499
54
493
41
492
50
492
58
495
72
505
74
491
68
500
110
485
169
490
170
487
150
504
109
505
90
511
60
508
19
529
-50
519
-127
525
-188
510
-206
494
-194
509
-185
524
-182
514
-184
516
-168
496
-117
490
-58
507
13
500
83
535
156
526
253
520
321
517
335
524
284
513
211
479
140
537
74
557
20
554
-45
494
-77
463
-89
443
-97
435
-87
441
-68
476
-64
481
-96
517
-95
576
-39
576
28
556
88
545
119
520
127
490
129
481
209
494
326
514
339
510
292
519
291
502
378
492
334
501
301
524
292
536
277
526
257
497
233
502
123
503
-118
513
-253
517
-336
506
-402
508
-473
494
-506
514
-477
519
-374
515
-290
511
-263
503
-302
494
-371
505
-334
500
-259
517
-168
514
-77
517
13
519
79
511
133
519
201
513
244
513
247
483
231
492
208
435
178
449
163
460
170
480
152
489
127
488
124
497
102
519
13
550
-33
552
-34
523
-9
515
12
559
19
581
44
546
88
485
124
449
153
378
168
341
161
318
123
309
118
363
97
475
150
483
245
547
288
605
213
694
157
742
135
751
112
693
35
643
14
588
36
547
50
520
14
573
-18
594
-39
540
-24
482
61
442
63
403
31
405
79
397
201
398
309
389
276
418
199
408
103
438
-12
457
-136
459
-241
459
-295
440
-329
454
-404
485
-456
512
-478
501
-474
454
-484
439
-492
481
-433
530
-353
523
-316
510
-294
566
-266
651
-235
671
-188
653
-118
601
-69
573
15
555
76
514
127
500
163
495
226
484
250
523
249
547
245
550
220
523
201
477
195
439
221
423
235
428
253
453
276
450
294
471
301
495
319
500
350
525
358
524
344
519
349
519
308
524
253
518
206
524
219
535
190
556
137
547
73
539
4
515
-57
511
-95
493
-131
484
-157
477
-208
458
-305
465
-337
470
-332
487
-364
500
-373
532
-370
554
-340
562
-318
568
-274
548
-193
525
-64
516
42
515
105
494
142
485
140
479
180
469
227
480
184
487
153
471
155
469
209
444
179
482
123
473
95
514
70
506
46
495
-12
505
-59
517
-93
532
-63
529
36
534
57
504
47
511
38
482
64
466
97
484
60
506
1
560
-38
582
-32
510
-22
487
-8
471
-30
458
-93
443
-137
440
-159
443
-121
475
-90
489
-56
510
8
531
54
565
77
537
86
549
65
546
60
540
130
549
191
533
242
535
298
485
280
485
238
488
197
509
154
504
57
486
-90
446
-181
500
-171
619
-208
663
-224
602
-242
517
-248
505
-226
520
-163
487
-99
481
-74
447
-48
434
-33
448
-3
436
23
460
69
473
87
494
115
489
154
510
172
509
145
499
135
516
110
547
99
543
77
528
58
510
50
508
40
515
23
503
20
501
44
493
57
500
80
502
105
497
164
506
174
526
167
523
132
539
98
528
65
537
46
518
34
518
49
498
30
485
-25
477
-47
492
-35
489
72
485
92
485
80
470
66
482
72
482
109
501
109
507
61
492
-91
505
-167
528
-115
522
-71
540
-30
531
54
541
118
533
109
529
43
511
-22
481
-96
476
-114
464
-132
450
-137
495
-104
484
-4
483
26
485
4
479
-29
489
-63
501
-113
522
-139
515
-135
534
-51
542
-19
533
-82
513
-74
506
-3
493
34
488
61
493
112
480
129
460
139
523
128
609
35
629
-64
602
-75
533
24
463
147
421
174
480
143
533
186
515
246
444
306
388
245
373
253
382
319
408
427
439
466
494
521
542
521
590
390
632
230
595
16
595
-198
575
-384
580
-565
591
-731
504
-807
524
-809
638
-847
666
-813
653
-759
544
-658
455
-575
341
-519
276
-446
257
-353
288
-261
305
-179
337
-86
409
-9
490
101
531
183
566
239
597
260
584
311
563
344
554
365
566
389
580
441
604
475
631
510
607
520
561
489
532
447
502
411
482
394
469
382
465
388
430
382
385
432
350
432
364
381
435
268
479
142
539
8
513
-68
492
-111
479
-127
486
-134
530
-150
613
-149
617
-163
572
-257
539
-334
509
-358
505
-348
485
-336
469
-319
453
-288
448
-243
451
-179
476
-118
495
-76
504
-51
514
-10
522
42
531
108
542
164
553
199
536
202
518
202
500
193
487
208
487
205
473
233
474
225
481
185
483
160
463
136
473
71
462
25
476
28
495
33
492
21
510
-9
508
-60
523
-110
517
-156
546
-165
554
-171
539
-233
512
-295
490
-253
531
-180
579
-225
554
-274
523
-280
462
-293
458
-303
504
-284
535
-218
522
-160
480
-120
450
-66
455
40
460
135
465
214
454
325
454
475
449
449
470
355
487
300
511
225
530
121
527
44
532
16
578
-106
588
-174
585
-169
566
-163
563
-134
525
-75
512
-21
522
-21
518
0
531
33
531
56
566
74
577
57
553
42
508
36
516
37
503
30
490
33
473
46
457
78
458
100
462
138
451
152
476
156
472
157
459
143
471
143
480
130
480
120
496
111
487
102
511
83
489
79
498
78
503
81
512
100
521
143
508
134
513
110
509
106
518
84
506
60
515
29
498
-3
477
-35
482
-42
450
78
447
161
453
185
476
188
478
161
509
132
552
84
555
25
560
-41
558
-114
541
-142
521
-137
504
-122
493
-99
485
-53
488
-41
478
-51
491
-18
490
19
500
56
511
32
501
-20
518
-78
506
-140
489
-185
487
-241
492
-329
501
-335
502
-234
483
-96
485
73
494
246
474
382
482
459
488
479
523
511
546
535
613
425
585
322
544
263
557
255
599
238
550
183
522
51
482
-99
436
-254
429
-379
450
-481
464
-638
462
-659
457
-496
494
-282
478
-209
456
-235
463
-227
431
-222
338
-271
305
-306
352
-314
452
-353
553
-380
591
-401
606
-391
638
-245
609
-108
590
-34
563
37
522
118
526
196
532
290
515
366
531
388
525
354
520
281
496
207
494
156
482
136
491
120
478
110
480
139
488
184
516
272
504
361
558
403
592
451
591
470
538
496
507
532
468
590
420
578
375
545
372
518
397
413
413
232
503
34
636
-143
685
-304
680
-462
577
-576
492
-654
448
-757
447
-763
500
-633
514
-504
478
-399
460
-322
532
-279
563
-212
528
-174
458
-98
391
-55
377
-33
400
9
440
20
516
48
552
75
545
113
523
119
503
137
516
161
548
171
569
193
580
204
575
194
550
179
518
173
514
175
516
157
513
130
499
109
502
70
493
62
506
55
502
36
512
32
484
20
492
-1
475
-3
486
13
502
-1
497
-4
464
2
480
-17
459
-8
456
-9
458
12
477
16
478
9
473
1
457
7
467
1
471
25
477
16
498
19
483
6
469
-1
486
13
491
19
490
38
482
39
498
27
512
17
517
3
509
-20
503
-30
493
-25
514
-11
516
10
550
16
530
-10
503
6
515
34
524
40
550
36
533
-4
527
-22
508
0
514
3
525
-2
533
-11
519
-39
520
-69
507
-125
503
-119
503
-73
497
-1
515
89
520
171
505
238
506
283
494
323
494
323
501
263
505
196
486
135
483
96
477
104
467
121
488
57
489
-30
506
-42
507
-35
514
-4
496
15
489
-20
484
-36
485
-54
483
-99
488
-272
507
-318
493
-264
481
-269
497
-241
525
-218
489
-194
516
-172
516
-149
613
-111
705
-19
701
25
515
82
363
105
359
120
322
106
328
72
508
74
655
58
675
-15
572
-53
471
-30
429
11
490
42
582
67
609
72
613
95
586
127
575
157
551
170
543
168
516
166
506
158
492
154
482
138
477
131
456
122
443
105
434
96
423
102
440
111
425
139
445
170
455
183
447
176
457
142
470
122
469
98
475
121
495
175
472
157
431
208
459
282
477
348
456
350
460
269
423
160
386
48
366
-23
421
-37
526
1
596
56
609
89
603
27
565
-110
566
-226
565
-309
571
-383
547
-438
529
-459
498
-469
481
-459
513
-424
596
-325
623
-224
590
-176
546
-164
505
-191
477
-201
460
-197
459
-176
473
-138
478
-124
472
-117
477
-91
493
-5
506
84
535
169
546
224
553
240
574
246
624
231
588
250
554
256
534
249
535
180
541
112
492
85
450
105
413
172
440
237
456
238
448
190
417
146
437
139
466
141
521
92
571
71
555
67
519
68
564
38
581
16
556
93
528
182
503
219
536
158
536
99
489
78
443
7
422
-85
408
-204
395
-315
415
-406
406
-462
436
-458
457
-404
503
-389
525
-409
525
-381
538
-270
550
-138
570
-54
567
-2
567
44
559
69
541
89
533
77
515
70
494
133
521
239
521
254
528
248
517
309
476
356
440
361
424
381
444
419
498
385
526
329
541
232
574
133
578
37
536
-101
538
-323
580
-392
586
-329
551
-251
519
-218
455
-193
430
-163
410
-103
421
-54
424
-40
424
-44
432
-47
460
-52
453
-62
479
-55
499
-66
507
-74
533
-60
529
-39
537
1
567
51
543
99
555
122
538
153
544
167
540
191
559
196
550
206
527
201
518
218
508
235
499
236
513
225
516
190
503
169
498
137
502
103
489
89
503
53
512
3
512
-20
508
-30
487
-85
491
-109
471
-104
483
-63
508
-16
508
4
502
32
483
50
466
123
501
158
529
206
578
278
575
228
526
131
485
31
441
-44
446
-102
468
-189
493
-236
474
-275
507
-294
554
-250
583
-213
585
-162
567
-116
550
-23
532
63
525
103
534
177
511
294
514
337
491
345
464
345
446
330
419
297
417
254
418
199
438
67
460
-21
481
-94
505
-193
532
-263
551
-300
561
-364
536
-367
502
-379
561
-469
568
-438
536
-339
503
-230
462
-157
437
-74
443
-29
440
41
452
132
455
224
460
266
471
262
517
217
513
146
533
62
521
-1
536
-60
536
-90
535
-184
538
-249
548
-219
535
-100
538
-19
520
57
531
134
528
199
543
264
531
323
536
349
513
334
521
321
524
304
541
334
553
320
565
269
564
228
532
178
482
118
461
48
511
-12
559
-42
545
-87
487
-130
456
-180
449
-227
437
-246
427
-241
435
-233
425
-202
450
-166
475
-131
465
-116
498
-89
496
-57
523
-16
538
17
542
57
532
77
517
93
518
106
503
124
507
130
493
136
502
130
498
152
483
142
495
136
490
125
489
128
485
128
513
113
508
95
496
74
486
53
496
61
503
38
513
28
522
-2
514
-17
495
-15
448
30
418
80
416
100
440
90
516
78
549
63
551
31
528
-6
531
-35
528
-40
535
-79
519
-116
517
-113
516
-128
522
-123
524
-127
531
-117
538
-104
547
-104
543
-102
545
-99
532
-97
516
-97
520
-77
500
-67
473
-32
486
-13
475
-5
472
10
480
31
475
50
476
58
499
71
485
57
488
65
491
53
487
69
508
64
513
67
517
63
515
53
512
47
501
42
502
40
500
33
497
39
505
45
506
31
501
15
479
19
481
3
490
17
493
7
519
28
513
25
515
21
507
11
499
11
498
17
521
19
522
35
534
29
515
12
502
22
511
22
519
36
533
29
519
32
519
27
515
23
501
20
501
25
506
23
500
29
518
33
507
19
492
11
489
6
488
14
504
33
520
45
523
35
510
20
492
13
503
24
518
50
530
47
524
38
510
17
490
15
502
21
511
35
513
28
511
20
481
14
500
14
491
15
496
17
502
26
503
35
511
22
522
38
494
12
502
25
499
27
525
47
518
44
531
28
502
26
492
12
497
29
519
34
506
40
512
21
482
17
504
20
517
14
528
32
538
24
517
23
494
14
523
41
565
51
576
84
553
104
522
102
475
117
450
131
477
177
481
201
452
249
426
224
401
171
399
119
438
58
513
32
547
-1
564
19
564
48
552
42
523
87
560
153
617
164
612
172
563
199
505
149
429
172
346
185
318
190
370
111
470
-51
529
-200
561
-227
595
-214
574
-220
594
-223
597
-194
547
-158
506
-61
479
49
446
71
414
-42
458
-213
590
-274
640
-237
588
-218
497
-273
497
-311
511
-298
494
-291
470
-232
444
-206
393
-252
417
-331
459
-364
497
-318
539
-256
562
-363
570
-503
581
-555
585
-523
598
-323
590
-132
574
49
568
207
553
393
528
619
494
742
452
827
409
896
368
755
403
604
506
593
541
523
520
397
452
293
391
321
423
386
423
314
481
102
527
-197
516
-333
520
-331
568
-345
638
-375
608
-371
523
-317
536
-254
617
-222
640
-216
603
-204
552
-200
490
-180
444
-178
414
-225
405
-210
357
-93
380
64
439
196
496
252
573
273
583
260
576
237
478
202
447
170
458
161
471
170
527
128
535
82
542
59
529
60
529
75
529
94
532
103
527
83
521
46
521
22
520
-8
516
-4
524
-3
510
-9
520
-1
518
-11
492
-25
491
-30
487
-10
487
11
504
33
503
40
498
29
494
46
512
69
513
83
535
95
513
101
513
96
517
112
529
90
527
62
528
-5
514
-80
513
-131
526
-130
520
-107
516
-82
513
-52
507
-33
507
-12
504
-3
499
-11
511
-16
503
-9
516
-18
521
-18
506
-31
499
-37
499
-60
502
-76
505
-88
510
-85
501
-102
497
-121
500
-101
513
-83
531
-62
477
-61
477
-36
532
-2
570
27
522
50
499
61
469
87
470
92
452
102
450
104
458
112
470
114
497
122
503
125
476
100
511
100
568
93
564
108
546
90
555
73
527
69
523
71
509
70
504
61
509
66
504
75
521
69
499
69
510
60
508
59
512
68
533
68
536
64
531
56
540
42
527
41
537
41
547
46
536
36
523
27
508
27
505
31
493
31
504
32
488
34
481
33
490
33
476
42
483
43
500
46
501
71
504
66
511
67
518
65
498
61
515
53
497
51
499
54
501
54
500
40
493
29
489
41
505
42
506
52
513
55
510
48
506
34
497
40
505
44
514
61
526
71
522
92
513
131
505
154
505
176
495
195
492
181
500
141
517
109
496
70
503
62
497
63
497
66
508
90
585
121
646
113
639
77
610
42
564
14
554
-5
542
-40
547
-62
533
-110
478
-131
420
-108
410
-66
461
-38
460
14
444
91
430
194
429
267
446
305
466
250
458
123
428
3
471
-52
504
-62
527
-73
520
-143
524
-247
520
-313
511
-389
515
-489
533
-557
549
-561
564
-434
549
-303
529
-225
521
-218
522
-168
513
-61
514
31
508
44
514
30
507
8
509
-17
494
-4
496
23
485
46
459
78
471
72
464
28
449
75
452
169
465
208
552
199
615
160
641
159
587
172
513
185
473
140
437
130
482
134
559
141
544
153
549
152
538
150
581
120
561
74
548
-11
504
-44
496
-37
492
-39
505
-62
488
-48
514
-19
507
2
510
37
534
83
526
159
526
279
496
466
483
602
480
630
492
549
477
526
478
418
470
243
475
58
473
-116
481
-293
502
-394
500
-422
494
-534
500
-620
508
-612
517
-557
503
-478
506
-391
502
-308
500
-260
488
-215
486
-203
473
-152
487
-120
489
-83
503
-56
495
-21
513
24
499
67
503
113
508
159
521
184
509
202
516
215
518
226
517
221
525
213
527
215
525
202
523
193
521
168
512
166
506
187
507
214
506
237
490
221
482
200
510
120
550
81
582
70
597
33
550
3
511
-27
526
-42
511
-51
495
-39
474
-42
452
-47
461
-59
469
-72
482
-81
495
-94
514
-111
526
-100
524
-164
520
-202
530
-201
529
-194
532
-208
516
-192
534
-141
525
-95
546
-58
538
2
521
117
523
222
514
257
514
284
503
264
472
252
484
263
476
166
527
79
490
29
495
-24
480
-39
484
-87
493
-88
494
-80
495
-53
482
-24
493
-1
519
20
509
18
511
4
500
-2
508
2
521
3
528
32
520
102
516
170
507
190
529
189
518
189
514
171
515
136
528
111
527
98
533
89
532
56
521
52
512
27
512
-1
510
-58
515
-127
503
-134
514
-107
493
-51
498
36
510
100
502
114
503
108
510
101
508
71
508
41
488
6
502
7
505
2
513
-27
514
-23
508
-25
494
-10
491
-5
489
1
500
13
515
24
502
27
509
17
505
-3
507
2
511
-7
496
-2
510
0
504
0
473
9
512
9
546
12
600
13
565
-2
515
-6
475
15
464
26
445
35
431
38
435
43
448
52
475
63
512
59
525
58
523
119
502
194
503
260
546
306
558
321
563
298
502
262
449
176
417
77
417
-32
401
-98
520
-133
542
-169
553
-232
574
-295
607
-307
630
-257
617
-183
601
-120
536
-87
542
-64
561
-9
561
43
518
126
491
240
451
258
397
229
396
212
391
239
393
225
461
149
502
36
521
-109
514
-203
515
-214
519
-218
542
-231
535
-241
532
-246
536
-222
528
-206
521
-201
537
-213
525
-188
546
-187
552
-181
530
-163
517
-110
505
-46
507
15
490
74
499
139
517
172
505
169
495
197
526
219
586
269
600
303
547
336
519
322
491
279
443
189
409
161
466
115
498
101
441
88
374
61
367
64
397
91
432
123
451
97
479
92
505
68
549
64
559
33
582
-13
605
-79
607
-137
602
-182
570
-205
552
-224
565
-239
536
-208
515
-183
490
-141
481
-95
486
-62
495
-10
455
67
422
67
402
40
341
-2
347
-16
461
-34
528
-24
564
-14
565
13
526
57
523
101
559
181
577
258
560
287
546
285
533
267
518
248
499
197
493
158
475
103
480
39
457
-18
463
-107
475
-146
485
-144
535
-126
523
-121
501
-75
475
20
471
109
516
143
575
167
550
122
518
48
523
-18
565
-85
568
-148
560
-186
556
-223
542
-228
526
-226
550
-230
559
-244
535
-241
560
-187
555
-159
545
-118
521
-74
488
-18
481
35
461
104
455
137
445
155
440
162
432
172
449
185
455
180
489
174
512
145
545
105
550
90
564
79
593
37
577
10
555
20
501
55
484
49
486
38
465
33
478
53
493
105
501
148
476
218
490
330
498
417
480
468
472
415
470
291
479
197
473
102
479
0
477
15
486
68
506
130
505
84
505
32
514
-1
535
-36
530
-103
516
-179
496
-293
499
-414
491
-496
496
-533
488
-539
494
-543
500
-558
506
-561
529
-479
541
-373
533
-253
516
-101
516
41
517
225
528
379
520
417
515
374
473
328
457
354
525
370
591
347
567
369
532
413
504
422
499
396
497
310
495
138
483
14
480
-72
480
-112
492
-108
504
-101
520
-112
529
-159
531
-194
548
-193
530
-181
535
-149
525
-142
518
-150
511
-164
510
-137
499
-79
491
-53
471
-21
471
1
476
39
470
105
480
116
465
106
483
126
473
135
485
178
498
225
504
272
511
254
510
189
506
123
518
125
507
93
504
52
494
35
502
51
497
28
500
-15
557
-34
586
-46
580
-54
545
-58
499
-71
531
-85
507
-89
515
-98
487
-106
494
-107
489
-109
487
-95
474
-74
497
-48
499
-12
498
5
516
27
513
43
494
60
507
78
493
80
487
91
500
105
498
99
495
91
497
75
487
75
504
78
492
66
515
54
513
41
512
35
511
37
512
31
510
34
518
19
513
14
496
19
518
17
509
4
501
-5
477
-3
507
12
507
9
516
2
499
-10
485
-4
514
7
519
-4
509
15
512
10
513
0
499
0
494
-1
497
4
507
8
510
16
507
5
508
6
498
0
497
10
510
5
503
11
522
12
512
12
496
7
496
11
503
16
510
19
503
22
514
14
503
23
507
10
502
26
502
17
498
20
507
8
496
12
501
5
503
18
496
23
503
16
505
15
490
14
494
21
514
21
497
28
515
30
504
22
506
25
511
25
513
28
501
25
516
24
511
24
502
33
512
27
493
26
496
18
480
18
496
22
517
27
515
35
506
16
489
4
475
11
497
29
512
35
531
44
509
34
504
18
488
11
493
24
505
39
529
37
514
36
506
24
488
11
491
17
502
30
496
32
504
34
521
37
514
17
490
15
501
16
504
20
504
35
500
29
521
27
491
9
495
12
502
16
489
18
508
25
511
27
511
21
504
10
501
17
496
14
528
20
510
20
506
10
496
14
509
1
493
2
496
19
516
23
504
22
509
19
486
7
502
13
500
20
506
13
515
29
515
24
510
13
502
12
501
10
497
15
498
24
513
26
512
10
508
6
488
0
486
-7
496
3
493
17
509
14
502
17
503
35
511
77
486
83
492
98
502
116
499
109
512
110
523
120
514
129
504
96
501
60
495
27
517
-9
506
-18
526
3
514
-10
483
-3
483
