LMS
0
206
196
212
204
211
209
204
179
169
165
169
186
179
161
145
158
168
187
191
180
170
155
149
114
106
90
73
52
23
21
26
29
29
36
40
45
45
48
67
69
78
93
125
139
145
74
25
-6
-33
-30
-17
-10
-8
-5
7
51
85
117
123
134
142
161
167
151
152
155
151
147
137
134
128
135
132
120
116
115
117
120
119
119
122
135
128
131
123
118
107
116
118
119
97
102
105
119
109
103
111
99
102
110
117
111
95
88
104
119
154
177
183
132
92
67
66
60
79
108
111
130
129
142
143
124
115
91
61
7
-44
-94
-95
-62
-28
4
44
77
107
121
122
111
73
63
75
113
148
190
240
254
183
71
-18
-82
-159
-188
-174
-114
-45
52
113
151
163
170
181
194
197
207
210
205
198
186
188
188
177
161
158
147
155
161
161
147
133
113
124
130
129
129
127
150
143
174
195
183
99
2
-50
-78
-55
-54
-32
-13
17
40
65
83
86
100
112
117
121
121
126
136
132
124
141
144
162
159
158
129
112
69
7
-52
-60
-63
-54
-50
-21
-5
2
12
26
51
94
99
110
109
127
118
143
130
145
143
141
132
136
118
120
116
115
116
109
96
101
122
123
126
118
132
132
142
128
132
117
108
97
83
93
88
96
92
83
116
129
139
109
73
42
45
37
46
52
72
73
93
118
138
162
143
110
99
84
71
64
52
48
53
69
64
88
114
118
114
125
143
130
126
114
114
114
128
139
138
135
145
163
174
152
150
144
143
156
159
131
105
84
76
109
119
144
164
185
216
209
202
157
46
-70
-149
-203
-253
-225
-148
-56
15
90
120
113
76
11
-25
-27
25
59
105
141
163
175
208
217
201
170
123
109
96
97
97
105
111
118
120
132
140
145
146
136
146
152
155
166
189
204
205
225
247
258
252
173
80
11
-32
-19
2
24
51
47
28
20
-13
-63
-94
-105
-93
-56
27
89
141
169
152
133
109
73
35
19
42
55
103
126
158
169
181
184
179
177
165
166
175
167
159
147
141
112
97
77
72
56
54
61
72
109
166
222
209
137
25
-68
-105
-128
-103
-79
-64
-38
11
70
105
117
116
134
143
167
191
248
256
240
204
153
118
120
121
114
99
90
78
60
54
60
58
52
65
92
107
130
133
122
106
90
66
52
30
36
39
51
71
77
92
87
94
91
124
149
169
151
125
121
126
138
148
164
150
160
173
179
198
243
293
341
370
383
388
326
175
-20
-184
-280
-301
-332
-334
-312
-239
-136
-39
33
91
147
163
168
196
218
179
126
101
88
89
95
98
119
143
170
162
151
133
163
176
188
200
224
248
215
140
58
-37
-116
-175
-186
-149
-85
-33
17
66
115
163
203
217
234
211
219
217
226
223
225
230
238
239
223
240
250
249
241
225
206
185
160
142
111
70
39
11
-6
-17
-36
-62
-84
-111
-177
-209
-204
-177
-134
-93
-39
20
49
68
72
80
35
41
37
62
79
116
125
143
167
190
205
198
200
194
208
200
194
197
196
206
201
199
177
175
179
167
143
137
133
123
129
138
138
129
118
120
132
146
162
162
170
142
138
123
41
-77
-133
-136
-113
-47
1
62
98
126
137
135
144
143
139
157
144
151
127
121
123
115
98
76
55
49
53
58
55
19
14
-2
10
16
26
45
81
117
140
169
202
159
111
90
71
70
84
98
130
150
167
181
191
201
207
211
214
203
201
190
183
171
153
156
120
104
84
74
69
60
33
31
20
41
48
55
42
30
47
44
60
62
86
98
113
110
113
90
58
37
41
55
75
53
63
79
103
110
119
110
104
103
104
111
124
119
113
120
144
163
181
178
171
162
155
153
151
151
153
116
107
92
96
94
95
83
71
69
66
70
82
81
44
33
25
53
59
42
8
0
2
52
56
87
101
111
102
95
115
132
139
143
134
124
128
138
143
146
141
134
122
111
120
106
108
82
94
92
100
106
96
100
98
93
91
84
92
98
108
101
94
101
99
121
101
102
100
92
102
102
100
100
108
93
111
115
116
100
101
107
104
108
118
112
117
99
116
95
109
95
97
109
109
105
92
105
106
103
111
105
113
111
105
107
102
97
106
118
114
109
111
107
112
111
108
115
117
115
103
106
112
106
112
101
108
105
107
111
108
106
96
98
108
114
112
101
105
97
109
105
108
112
117
111
108
93
103
110
115
109
110
109
120
119
116
112
97
109
113
109
111
109
112
101
99
109
114
113
99
106
107
108
104
114
110
91
94
99
98
113
99
98
87
98
106
112
105
96
103
84
100
102
113
97
93
98
106
110
101
88
96
90
96
94
91
99
104
92
91
98
107
101
103
107
102
97
98
110
103
112
106
92
96
87
107
120
104
99
87
105
120
112
112
90
101
106
102
111
100
103
90
98
105
97
99
103
98
102
77
90
100
98
109
78
80
75
99
98
102
101
79
87
86
91
107
93
98
86
89
89
88
85
95
98
92
94
88
93
97
98
85
91
84
97
101
96
99
91
103
87
110
94
103
98
102
114
109
113
110
116
123
111
102
104
107
109
114
97
92
110
130
121
111
94
107
111
109
117
112
94
93
109
99
110
114
112
102
102
95
97
105
124
116
89
79
90
103
109
118
90
97
93
109
107
115
107
97
99
98
99
98
105
104
92
108
96
102
101
116
100
93
88
94
112
104
102
90
94
106
114
114
100
93
85
99
102
94
109
96
90
91
105
98
109
117
112
114
104
109
109
107
97
98
92
94
100
102
92
84
74
105
86
99
101
98
96
98
106
107
115
93
92
93
104
103
103
104
104
89
86
89
107
115
107
85
81
92
111
124
102
108
78
87
88
116
113
97
98
82
92
93
107
108
85
90
88
86
94
105
104
94
90
93
92
111
95
109
101
103
86
94
103
103
101
94
90
95
98
101
92
86
92
104
101
100
100
89
95
87
112
120
106
103
103
102
108
104
106
94
101
102
102
85
92
106
100
102
96
103
105
114
109
97
99
95
99
108
109
100
96
109
94
111
110
100
102
91
108
107
114
94
96
85
100
114
99
108
93
92
90
103
100
108
106
85
86
86
94
98
105
102
94
84
85
102
105
100
96
94
90
102
98
106
98
96
95
95
95
97
102
107
98
93
97
88
103
96
91
76
80
100
110
104
92
97
92
108
95
97
92
107
102
100
98
100
102
101
110
101
100
101
97
96
100
98
95
110
91
102
85
95
98
106
104
100
96
92
106
104
93
102
104
106
105
95
94
106
107
98
102
88
88
100
106
104
91
86
83
93
105
104
89
91
88
99
99
104
107
108
99
98
99
96
99
101
97
91
94
97
93
92
105
101
99
93
87
92
113
117
114
99
96
104
113
106
124
106
82
84
85
106
107
112
79
92
89
101
113
111
112
94
88
110
109
119
106
103
98
93
111
109
110
105
91
86
109
108
111
114
97
105
100
101
99
89
105
109
92
86
87
101
112
110
91
98
105
117
122
115
104
84
101
106
103
100
107
99
98
92
82
91
91
103
100
84
86
82
100
99
102
88
94
105
109
100
94
106
107
111
105
98
101
88
114
98
82
89
99
103
111
110
101
99
89
101
112
98
99
97
94
92
110
106
97
101
103
105
107
125
100
84
96
100
113
106
109
96
92
107
100
113
104
113
112
92
100
93
101
107
107
88
86
98
102
116
112
101
91
89
112
103
109
94
105
81
96
101
107
109
96
92
92
99
114
106
92
79
80
97
111
105
103
99
97
102
95
94
96
85
92
89
102
96
93
96
93
99
95
105
113
113
107
98
96
95
110
120
108
107
97
93
104
115
113
110
111
94
94
100
125
116
117
94
103
98
106
117
117
103
96
95
93
98
120
110
117
103
100
102
99
107
106
107
90
109
117
117
105
100
109
99
96
103
95
97
93
94
104
88
115
94
96
91
97
102
107
99
96
92
90
97
94
108
96
75
92
108
115
110
103
93
102
102
111
107
101
98
96
94
103
107
93
100
104
104
96
97
99
100
100
98
108
116
106
110
115
95
109
109
116
99
109
101
97
92
83
106
112
111
91
99
94
114
100
120
113
107
104
102
107
117
109
110
102
106
110
112
109
96
104
98
104
109
107
107
98
101
110
116
124
110
105
114
109
110
118
112
113
100
94
86
104
106
108
102
97
92
91
95
94
119
117
127
95
98
100
116
123
113
105
91
91
105
113
115
96
87
79
100
104
118
102
91
93
108
107
113
113
113
105
112
98
115
117
112
102
100
102
104
110
108
108
89
89
86
111
110
104
86
77
95
112
120
106
105
103
100
105
107
109
116
115
97
81
96
102
121
99
100
89
95
107
117
108
107
97
104
101
114
105
107
94
103
96
92
100
99
97
85
87
89
99
109
109
97
100
92
109
104
114
110
89
88
90
117
105
96
88
85
89
96
105
94
108
93
96
99
99
110
105
106
98
92
93
97
115
112
108
94
95
100
117
104
99
84
95
115
117
114
100
93
93
101
102
97
103
92
95
92
94
95
103
97
99
103
97
98
118
98
108
102
96
100
100
109
82
89
91
96
104
106
100
101
109
109
99
105
95
105
99
86
92
84
88
101
92
95
98
100
104
98
101
97
97
101
104
96
102
95
107
102
102
99
100
103
101
92
95
97
95
88
89
90
99
96
93
101
92
81
98
111
106
112
100
111
98
102
121
111
106
91
101
93
110
96
90
93
79
92
92
96
95
100
91
98
105
96
101
100
107
100
93
101
99
106
115
97
99
97
97
97
93
103
102
95
93
86
87
87
104
95
71
75
75
86
80
91
102
110
92
83
78
91
97
101
105
97
85
95
98
94
92
100
98
94
87
78
79
89
92
89
89
82
99
95
98
97
92
92
77
95
98
90
84
85
84
92
89
95
88
101
103
92
98
96
106
99
106
93
94
109
109
115
91
103
97
103
105
114
116
99
104
111
109
105
103
111
114
94
106
104
107
109
105
96
91
101
107
106
94
89
94
104
94
98
90
88
89
94
104
102
96
90
87
96
100
102
97
92
84
91
88
94
85
91
89
88
87
99
98
103
96
101
97
101
104
96
89
94
100
97
110
100
106
100
98
111
108
110
101
110
114
106
103
108
117
115
99
91
104
103
105
112
93
87
98
98
116
109
118
94
95
88
110
123
112
98
90
89
93
102
108
85
99
88
95
107
98
112
93
88
102
106
111
107
106
80
88
91
105
110
105
91
77
97
100
106
102
94
95
88
94
95
100
102
102
98
86
94
98
104
93
92
90
93
103
102
103
93
93
86
100
103
97
88
83
79
102
93
100
111
97
104
96
104
108
97
109
93
92
95
93
102
99
105
91
88
91
98
101
104
81
89
99
106
112
103
103
91
96
92
113
105
104
91
96
87
94
108
106
99
93
89
99
107
99
99
102
84
96
103
101
101
106
110
95
95
105
107
96
103
84
89
85
101
98
91
92
84
93
92
103
111
102
100
76
86
105
108
96
94
83
94
97
96
98
95
94
82
89
106
98
85
97
96
102
110
99
99
103
86
91
94
97
99
101
98
103
91
104
104
107
109
109
105
95
103
100
111
91
91
92
99
108
93
104
90
100
115
106
116
109
103
99
103
107
109
101
97
92
91
98
101
109
101
106
101
96
100
105
104
89
84
89
99
104
79
91
93
100
95
85
95
95
97
99
103
98
105
102
95
97
104
97
109
105
91
84
87
95
90
103
90
84
78
83
101
89
104
97
95
94
101
107
113
109
103
95
92
103
113
110
98
91
89
97
99
110
107
108
94
89
93
93
104
99
101
101
95
100
108
115
115
107
94
92
105
106
101
97
97
103
89
97
100
107
102
101
104
94
92
93
109
105
108
99
98
87
87
93
91
104
98
88
84
90
105
90
102
97
101
96
104
105
98
104
106
110
97
95
104
96
104
100
103
96
98
103
101
114
97
103
91
81
103
106
111
101
102
101
105
113
119
111
107
106
105
114
101
103
104
101
109
106
100
103
100
108
108
110
102
99
106
106
97
107
101
111
113
111
101
110
101
102
112
114
111
89
109
99
106
104
89
94
101
113
107
97
102
109
95
96
85
90
107
109
105
89
98
108
120
101
98
95
102
111
100
104
93
96
90
96
104
103
97
106
102
93
93
107
102
104
100
86
96
102
110
105
110
88
87
98
98
104
93
94
88
94
111
110
102
99
97
118
114
114
104
100
106
101
109
117
98
99
106
101
113
110
100
92
99
104
97
112
113
110
100
99
95
95
107
109
110
96
84
106
103
97
102
96
110
102
102
89
112
101
97
104
88
98
90
104
104
103
97
105
110
115
116
112
108
94
98
96
98
105
102
98
91
80
87
99
106
97
105
100
109
108
108
109
98
89
101
101
121
111
100
103
103
113
104
114
106
98
107
103
108
114
113
103
96
99
103
106
108
111
98
100
113
108
101
108
101
104
101
116
113
120
109
109
107
96
110
107
111
102
96
88
94
113
114
108
95
102
105
111
113
111
117
102
105
103
104
103
103
107
100
102
103
102
108
111
105
100
100
95
95
99
94
94
102
104
101
102
110
114
115
106
100
88
113
102
105
100
100
92
99
102
90
95
95
98
100
87
91
99
103
113
123
104
88
106
111
112
112
113
104
106
98
101
103
111
96
88
97
97
102
107
111
98
106
107
115
112
115
108
112
102
94
107
109
104
104
89
102
112
115
116
113
100
99
97
105
109
101
104
105
106
110
109
104
102
103
108
107
108
106
109
102
102
112
105
106
101
108
101
106
121
95
102
106
101
101
101
96
103
99
102
93
95
90
102
107
111
109
108
107
116
110
117
108
111
111
101
97
96
109
100
111
105
105
95
108
101
109
94
97
106
106
121
106
109
100
111
125
117
114
95
104
99
116
103
97
109
94
95
103
103
99
93
110
92
98
96
101
90
98
104
104
97
106
122
107
91
114
111
104
102
89
97
100
100
99
87
92
100
111
89
93
96
97
99
104
94
86
82
96
110
109
87
95
88
93
115
103
101
88
90
92
87
98
98
95
98
93
89
98
105
99
112
106
112
106
98
102
96
105
104
87
97
97
114
99
106
91
103
101
110
115
109
103
92
83
106
106
112
99
105
93
89
117
111
110
97
92
76
103
107
117
101
97
89
96
106
106
101
105
90
95
94
112
101
97
97
90
95
112
104
105
99
90
91
102
99
107
97
92
91
104
102
106
99
85
94
104
109
113
108
99
88
93
98
106
110
110
108
95
101
100
110
100
115
108
97
96
91
102
91
102
106
94
109
109
112
98
108
92
101
112
102
103
105
98
90
106
104
98
119
102
102
98
99
101
91
110
104
100
97
99
93
99
89
102
104
100
95
96
94
107
107
109
94
98
87
98
101
111
106
86
84
94
94
99
91
87
81
94
98
101
109
106
100
90
94
92
113
119
96
80
79
95
100
105
103
91
76
87
88
93
103
115
96
87
93
101
115
109
119
93
91
104
108
113
113
102
96
92
103
118
125
105
98
92
102
110
102
121
99
100
99
107
108
116
100
95
97
104
109
119
120
114
104
94
99
112
111
118
104
95
97
123
114
107
96
94
105
98
110
96
90
89
94
97
103
105
98
101
103
94
105
94
94
90
108
93
93
100
95
103
89
86
93
112
110
104
99
100
107
107
112
113
113
98
101
110
94
113
95
93
88
105
109
103
103
97
109
112
101
111
100
112
106
111
102
99
104
102
104
110
109
110
101
109
103
98
101
116
112
108
105
99
93
96
105
101
110
101
93
94
85
104
105
102
103
100
104
116
114
119
93
93
108
101
96
103
103
95
97
78
103
97
109
111
96
96
98
102
98
105
105
91
86
100
94
88
90
97
96
97
88
98
95
107
94
109
108
107
98
104
118
114
110
92
97
103
99
113
107
106
89
87
93
108
115
113
104
99
94
119
124
111
105
103
113
103
106
102
102
106
98
104
108
107
101
108
109
112
103
114
116
99
93
74
95
110
116
107
87
91
104
113
116
104
111
103
101
106
99
110
111
115
94
89
95
107
110
114
86
94
102
100
112
103
99
91
89
94
117
107
101
107
97
109
103
105
109
105
110
112
100
100
105
110
105
115
108
102
105
98
101
111
107
112
102
100
106
111
115
110
104
97
100
111
120
114
100
97
108
108
131
141
129
123
132
136
132
129
117
103
84
74
85
96
94
105
113
116
128
132
132
115
94
84
74
79
72
70
49
53
62
81
93
88
90
99
106
115
139
149
137
138
134
130
128
114
100
73
72
78
85
82
84
92
95
89
91
109
110
117
105
106
108
111
115
124
103
111
100
107
100
104
93
94
95
108
112
109
104
113
97
90
100
106
112
95
97
102
98
109
105
94
93
98
97
111
95
113
109
107
104
97
101
110
98
100
100
91
98
99
110
137
141
152
145
153
155
140
124
98
64
30
4
8
12
30
57
73
93
106
110
112
108
114
120
125
125
122
117
107
116
128
140
124
107
92
104
91
109
97
79
85
86
95
92
97
105
107
97
86
95
103
106
103
90
99
99
106
95
111
105
108
101
115
112
117
128
125
138
112
124
117
121
111
108
90
75
81
81
71
75
87
110
119
145
133
123
97
94
104
97
96
101
89
91
93
93
78
70
39
33
27
53
59
100
123
133
137
138
143
130
138
140
137
128
127
107
114
99
106
115
98
106
104
102
100
97
104
102
105
98
115
112
125
114
111
111
95
103
93
97
92
95
100
105
108
103
113
97
95
79
77
70
56
43
28
30
48
77
98
96
103
97
107
118
133
138
114
114
101
97
111
106
118
104
88
87
94
105
99
119
109
115
123
114
118
106
92
88
88
110
123
121
128
124
125
111
107
103
101
85
72
79
80
72
66
67
52
80
90
113
100
98
98
92
106
122
126
125
109
101
100
120
116
115
122
106
117
113
117
115
113
107
96
88
99
96
93
91
96
103
89
112
110
113
118
123
113
117
97
90
68
54
58
59
65
75
89
118
121
129
134
136
109
86
71
55
61
82
93
112
102
107
107
116
113
123
127
110
108
121
127
130
134
137
134
139
131
128
110
104
80
75
85
74
88
87
86
83
89
96
102
107
108
95
91
107
107
110
111
107
95
105
110
95
93
103
103
100
94
99
97
99
109
108
95
102
103
98
104
97
94
82
85
88
91
96
84
86
87
87
83
93
99
94
107
101
126
132
159
158
167
141
131
98
71
67
51
57
70
68
75
80
83
67
70
99
103
118
110
93
82
105
116
116
106
103
99
116
132
129
134
111
120
139
149
140
141
134
109
84
60
45
42
51
54
58
54
76
104
95
120
122
124
119
116
113
122
111
115
116
110
112
111
108
96
102
108
104
94
97
109
109
98
94
85
86
90
105
104
104
81
85
92
106
95
104
99
93
96
106
101
111
108
103
96
98
112
102
114
105
112
93
106
100
113
121
102
104
95
99
103
105
107
93
90
86
96
109
110
117
128
113
133
129
122
91
63
36
41
53
71
86
75
76
83
99
122
125
121
104
102
108
114
113
103
96
120
111
108
113
114
118
127
134
141
142
162
143
147
141
123
92
62
50
32
24
13
26
21
15
41
41
69
66
68
88
97
114
129
119
134
145
157
153
141
120
117
115
101
96
86
79
93
98
100
106
104
103
112
112
109
111
105
107
104
105
103
106
126
113
121
101
93
102
92
96
95
93
97
96
97
100
118
113
101
88
87
77
86
80
83
70
84
81
88
114
122
121
127
117
121
126
128
127
127
122
108
89
96
110
93
91
59
26
16
-8
-12
-4
8
30
55
79
94
127
126
135
135
145
144
135
143
132
135
139
129
115
124
118
122
124
119
116
116
105
98
88
105
82
91
84
84
97
101
94
100
101
98
111
116
122
111
106
109
110
112
104
103
110
107
107
98
103
110
123
114
116
101
104
107
120
124
126
108
106
122
119
116
87
75
69
82
90
107
128
140
141
135
157
161
167
133
84
36
10
11
41
51
68
72
110
152
191
204
174
103
59
17
-29
-57
-74
-63
-36
4
31
65
96
108
129
125
138
149
156
164
175
169
162
168
158
154
150
150
145
151
166
190
211
189
149
84
47
18
-11
-39
-51
-43
-33
5
42
85
104
113
123
134
146
147
146
131
134
127
137
130
135
124
115
112
109
113
114
129
117
117
110
118
128
115
120
108
95
90
97
114
103
100
92
84
87
98
104
103
85
100
81
87
97
97
107
92
97
108
96
99
108
105
106
103
90
89
70
80
71
70
63
63
69
72
102
92
91
100
98
115
108
117
116
132
112
109
112
116
116
113
102
105
99
117
113
107
106
100
95
101
102
95
100
97
89
105
101
92
80
81
82
81
97
116
117
140
152
173
189
177
164
120
114
67
38
12
28
32
47
69
89
114
121
137
137
125
137
143
141
154
162
169
174
171
154
139
106
54
11
-35
-51
-28
-14
-7
25
60
87
173
225
277
299
250
197
135
87
19
-13
-25
-23
-6
3
58
94
112
112
115
136
149
158
156
140
130
134
126
133
103
82
71
53
53
90
122
148
173
206
223
198
174
159
140
102
76
68
54
26
33
45
43
52
48
65
51
57
75
96
128
160
192
210
194
149
122
83
83
78
74
79
92
88
95
101
114
110
120
115
98
102
87
111
103
106
81
72
57
57
62
83
113
120
136
131
128
107
109
83
66
80
71
79
72
69
62
73
85
91
121
117
112
116
121
121
126
121
118
113
117
121
113
133
125
116
119
125
111
121
134
128
116
114
117
124
115
113
103
109
110
115
105
94
90
97
97
99
86
92
81
86
78
95
90
86
96
108
105
123
117
116
104
98
91
62
66
73
75
93
104
111
115
131
141
141
139
116
93
103
94
98
105
99
123
134
152
135
125
110
105
110
121
107
90
75
55
44
27
23
58
86
151
212
256
236
159
77
73
62
83
102
112
135
129
128
102
84
77
89
101
108
124
135
130
146
138
138
141
147
135
118
113
115
116
95
81
55
26
46
79
107
116
119
120
166
165
143
139
112
115
141
185
244
269
183
78
65
87
114
94
104
154
183
196
192
148
105
65
-15
-78
-86
-45
7
64
88
73
38
-3
-28
-6
29
72
91
84
81
108
134
134
113
105
80
27
-25
-64
-79
-80
-33
42
98
144
190
227
213
201
200
201
202
188
178
179
173
180
188
184
177
166
130
96
86
96
103
103
84
31
35
90
167
207
188
168
97
43
1
-16
3
42
69
137
184
185
167
137
103
72
75
88
96
96
90
105
111
127
143
156
125
125
121
123
150
158
165
134
142
162
207
218
208
185
154
120
85
38
-30
-75
-89
-109
-84
-49
-25
-18
-23
-29
-19
9
37
69
108
140
169
200
228
239
187
141
104
99
84
76
70
92
106
108
100
110
117
135
118
149
140
160
164
168
143
139
146
147
144
143
139
147
165
151
157
148
144
146
153
144
135
139
141
143
135
117
109
114
106
96
95
88
94
89
53
44
18
9
22
42
52
53
49
48
49
88
107
140
158
149
166
172
162
154
152
143
145
142
144
146
145
141
138
137
132
120
96
85
75
97
132
161
159
141
95
77
75
68
61
50
4
5
28
44
62
79
96
100
105
87
62
52
61
76
94
115
109
129
128
141
158
203
203
159
113
92
95
89
94
85
82
92
104
118
110
108
102
102
118
110
116
109
98
107
111
103
105
110
111
111
96
96
106
109
114
99
108
107
93
103
102
100
98
86
84
92
100
100
98
101
97
94
109
112
114
115
106
97
109
114
132
116
121
104
94
99
114
120
119
116
110
105
118
98
73
38
41
46
61
69
75
65
45
37
32
36
60
83
93
103
121
125
124
139
126
130
136
125
139
124
124
126
129
117
122
116
117
119
129
128
104
113
116
116
128
104
95
106
102
110
110
106
103
97
103
101
100
108
107
113
99
99
96
105
123
118
111
81
93
106
122
120
94
88
80
101
93
108
99
86
78
89
89
106
119
113
94
81
76
81
95
104
102
99
93
96
116
101
110
101
103
104
113
101
85
99
97
107
105
92
97
99
112
105
107
114
101
108
111
110
107
116
106
103
115
102
100
105
110
109
104
103
95
111
108
101
110
98
107
83
97
117
116
119
107
99
97
110
115
111
109
110
92
97
101
107
106
98
101
92
107
115
113
110
100
102
96
109
106
116
114
94
77
95
96
108
110
97
90
89
93
96
99
99
100
91
92
90
95
107
112
106
96
93
96
108
125
109
100
82
97
105
111
101
93
89
79
102
97
123
110
94
91
101
102
103
117
106
118
110
104
105
108
109
108
95
103
95
104
104
101
98
94
104
106
109
113
117
106
97
118
117
109
119
106
100
98
110
97
112
99
104
91
101
107
104
109
103
104
98
110
108
115
108
95
102
103
115
109
112
96
95
95
115
117
112
92
99
100
97
104
108
101
92
100
101
101
110
108
115
111
92
107
113
114
107
106
96
83
105
113
102
100
85
93
103
114
112
110
108
90
101
121
112
120
119
97
101
96
97
108
116
106
96
96
105
128
127
114
90
97
107
114
113
112
96
87
91
99
98
105
112
97
90
101
106
124
110
102
85
96
105
116
110
101
96
83
106
112
120
111
85
91
94
104
105
110
94
89
83
94
108
109
98
89
81
95
116
109
110
97
106
97
117
110
117
112
98
93
110
113
117
110
100
87
92
109
107
114
97
104
98
113
116
109
106
107
104
117
119
120
106
100
109
106
111
121
131
108
103
105
103
99
115
105
118
113
103
100
100
113
122
119
109
102
113
104
103
114
108
113
112
98
98
115
119
112
110
100
111
105
102
111
107
109
100
93
101
107
110
119
103
93
106
99
118
125
116
89
100
99
99
99
94
80
89
99
116
107
100
94
102
103
111
120
107
104
98
111
105
103
107
101
104
112
99
102
111
118
103
109
99
107
100
111
99
95
111
113
110
102
99
103
108
115
114
111
107
98
108
110
108
113
113
102
107
93
103
111
105
112
104
98
97
105
103
112
103
90
95
100
109
99
100
106
101
107
105
108
103
108
107
104
108
94
102
90
104
105
105
100
101
93
104
113
118
116
105
89
96
119
119
107
102
94
99
109
115
108
100
95
94
104
114
122
122
101
111
103
115
117
131
117
117
107
100
93
123
115
105
98
97
109
123
122
106
101
105
111
124
123
112
111
102
108
110
111
114
117
106
102
121
110
117
104
91
112
113
118
117
111
109
110
124
117
123
96
106
111
109
122
114
103
90
92
107
120
123
116
99
91
104
109
115
128
107
98
90
110
109
123
121
95
89
99
117
130
114
103
87
94
94
119
114
100
87
84
95
99
117
108
110
96
112
118
121
122
114
115
110
109
104
110
116
113
109
102
94
112
119
114
100
101
90
98
110
120
99
101
99
103
110
114
116
113
104
108
106
112
109
104
102
115
108
107
111
104
108
103
95
107
111
101
118
102
101
98
103
109
111
95
99
97
96
109
113
108
95
93
109
117
104
115
103
99
111
105
109
90
106
100
98
111
104
111
107
107
119
117
100
104
96
96
100
104
118
107
111
104
100
100
108
125
114
102
111
117
115
108
108
100
110
99
112
115
104
104
106
118
106
105
106
105
107
103
97
108
108
106
102
115
96
108
121
119
109
95
97
99
111
110
107
108
90
100
103
117
112
112
98
95
99
103
108
102
106
88
95
97
100
106
112
100
94
103
103
102
116
104
101
91
108
113
114
115
89
87
94
113
126
99
100
104
100
90
99
106
101
94
95
92
97
97
112
95
112
97
103
110
122
126
118
104
94
100
110
127
111
101
94
91
100
98
118
114
96
99
100
115
113
105
105
95
107
107
107
104
107
102
106
95
112
105
114
106
101
108
107
106
104
104
110
113
108
97
98
108
96
106
96
99
111
114
110
111
103
105
115
119
106
100
95
97
108
102
106
112
97
106
90
97
107
109
111
102
90
96
103
116
116
98
102
114
99
110
103
110
101
97
94
96
106
108
101
96
94
104
101
108
121
112
103
108
96
104
104
105
106
104
118
107
109
114
120
110
116
101
106
102
107
100
100
110
100
101
103
106
112
103
106
93
99
98
98
100
103
97
100
104
90
109
112
111
104
108
97
98
94
97
104
84
96
94
99
98
100
104
94
109
107
98
94
95
103
101
105
94
87
83
92
101
97
116
102
95
105
93
104
101
108
101
93
101
97
103
99
100
108
107
114
113
97
96
99
111
100
87
93
89
100
109
97
98
100
107
108
102
103
102
108
92
96
108
102
105
103
103
103
103
108
115
102
94
99
91
91
96
98
100
91
100
92
104
97
99
102
99
92
98
100
100
114
96
96
102
96
99
102
96
97
111
84
100
92
105
99
96
97
101
88
87
94
99
100
101
94
98
96
96
108
102
95
97
94
93
83
93
99
107
109
95
100
101
97
109
110
114
92
101
98
96
105
98
92
98
102
102
101
109
104
103
93
101
103
105
107
107
97
87
91
99
89
104
106
88
90
98
112
103
113
94
96
103
107
113
104
92
96
102
98
101
108
106
89
86
86
98
99
102
92
74
73
99
96
107
98
103
98
92
92
100
95
90
96
94
88
95
92
102
97
87
91
93
91
94
109
98
92
79
97
91
95
97
86
98
105
112
99
95
111
98
109
100
103
97
96
99
100
93
94
106
107
106
98
91
86
96
107
103
86
90
98
105
118
110
116
107
95
100
96
114
111
106
95
86
90
93
104
97
105
104
93
87
98
94
102
89
89
87
97
94
94
93
93
94
105
99
96
95
88
105
102
101
95
93
94
111
128
112
96
80
90
110
102
114
102
100
97
94
90
92
108
101
108
105
94
102
110
120
117
93
106
109
141
127
121
100
97
99
113
102
116
96
97
117
114
135
116
119
100
94
84
84
89
97
100
108
114
111
108
109
104
102
86
108
111
118
118
104
106
110
102
94
96
92
85
92
92
106
108
115
108
104
114
109
118
109
98
86
87
81
95
86
94
87
83
97
104
108
107
98
118
98
106
96
109
104
107
97
102
101
105
111
120
111
112
96
94
97
115
109
111
101
107
92
96
107
106
109
100
100
104
117
114
110
99
91
94
106
113
107
113
106
90
97
110
114
110
111
84
90
98
120
124
108
106
91
92
110
122
103
107
84
98
101
111
98
91
99
105
104
106
121
123
107
109
101
121
121
118
97
93
91
93
103
97
98
101
86
90
104
105
108
110
110
103
108
108
108
110
111
93
99
115
101
114
97
106
89
93
94
101
110
109
103
101
97
109
124
109
108
96
112
101
115
97
100
101
107
111
107
110
112
109
112
105
117
122
119
112
125
118
109
117
105
117
103
104
109
107
110
106
110
114
110
112
109
114
117
107
113
108
115
122
115
110
108
104
107
115
113
113
119
102
96
91
98
102
109
103
107
104
114
99
114
117
104
113
110
119
112
100
98
92
99
110
112
105
95
100
106
109
108
105
105
98
92
116
123
113
99
101
103
121
121
124
111
108
106
104
111
128
123
112
118
110
110
129
113
108
99
103
108
109
113
109
99
97
103
104
110
118
112
103
97
106
120
123
129
118
102
109
110
118
111
102
95
105
94
100
93
97
97
107
112
102
103
112
105
108
107
110
107
109
109
103
107
106
111
96
108
104
97
100
96
95
98
90
91
97
110
104
102
93
99
108
110
111
106
107
103
106
111
110
116
108
100
99
110
97
102
104
107
107
112
104
112
100
111
94
104
105
109
111
106
102
107
108
105
103
106
101
119
103
106
91
105
103
106
113
106
99
97
102
115
95
97
90
107
112
107
104
107
106
105
112
119
107
97
107
96
116
104
109
103
107
100
100
101
108
117
104
101
97
107
113
118
116
94
93
97
102
113
98
98
92
92
110
103
104
108
103
93
93
107
100
101
100
107
93
92
98
103
104
99
94
87
97
108
110
104
115
111
112
113
107
121
105
100
95
103
93
101
108
107
93
100
98
106
112
109
102
105
103
110
111
120
103
95
92
113
115
114
104
88
73
87
105
114
107
91
85
82
101
106
104
100
96
95
100
115
114
107
98
88
107
113
120
104
99
89
101
108
100
99
92
103
95
109
96
92
84
92
103
101
100
104
97
97
102
101
110
100
112
96
89
96
107
112
101
94
91
99
101
116
114
115
88
100
97
99
116
101
105
98
102
100
108
102
106
109
108
106
99
109
111
118
109
106
96
99
120
112
106
89
108
104
116
112
98
100
112
107
109
105
96
108
105
106
105
101
96
102
100
98
106
111
105
106
96
96
103
118
102
102
98
86
109
119
120
96
83
83
109
115
115
91
90
94
95
103
103
92
95
93
108
102
108
111
108
96
88
101
112
105
107
99
89
93
110
125
108
101
89
101
112
112
111
107
94
100
100
106
105
97
98
99
107
104
111
98
96
102
106
112
100
114
101
95
85
95
106
109
103
107
83
85
105
104
116
106
113
105
101
97
113
107
101
101
101
95
110
113
98
90
91
88
100
105
107
96
97
98
103
112
107
103
94
107
106
102
108
104
109
99
95
104
103
113
113
92
93
105
97
94
91
92
103
100
98
105
102
101
109
106
102
104
106
103
92
104
107
108
105
106
108
113
106
114
102
96
105
101
110
114
106
99
94
107
102
95
109
108
96
96
93
102
106
112
94
94
110
109
105
115
96
98
97
100
106
116
104
104
91
98
105
106
103
104
103
105
98
96
92
104
95
98
114
92
104
97
95
96
99
97
91
90
109
122
100
96
95
90
93
119
115
108
97
84
88
103
116
104
91
85
81
103
96
121
96
88
95
87
107
110
117
105
92
100
104
104
104
119
102
85
86
97
115
117
109
90
83
90
96
123
130
107
98
83
99
117
123
114
101
89
92
105
112
108
101
87
89
89
102
111
103
94
83
96
97
106
104
102
86
101
91
104
122
115
110
92
100
92
113
102
93
99
89
90
85
89
91
88
108
93
99
98
106
104
106
120
111
100
100
117
102
101
94
95
97
107
98
86
89
100
95
104
105
103
107
110
99
106
107
106
117
107
121
126
100
105
118
111
102
103
112
100
101
98
95
90
93
101
100
103
107
108
93
99
99
104
104
100
113
106
104
91
96
113
121
118
93
104
104
98
114
93
95
87
100
96
105
98
97
101
84
100
97
102
95
91
83
82
91
101
108
117
110
102
104
114
118
99
105
110
106
104
104
100
104
94
104
102
106
115
99
93
93
108
123
104
98
104
102
111
113
119
110
96
96
88
100
108
113
78
88
93
115
110
109
106
108
104
97
120
124
123
105
97
93
104
115
119
102
95
95
103
108
110
111
98
95
91
111
116
112
101
97
87
91
104
118
116
96
87
93
116
125
113
118
84
95
102
107
107
97
88
88
101
100
97
88
75
86
88
104
98
91
93
103
104
105
106
112
114
120
102
99
102
113
114
105
85
90
105
112
105
98
91
95
99
122
128
110
95
90
102
101
116
114
118
109
90
94
99
110
118
108
105
95
105
115
120
122
94
96
93
110
115
113
107
85
101
97
102
112
115
105
90
89
91
94
114
115
96
74
83
98
110
110
89
90
87
113
117
115
109
85
89
87
102
115
99
88
95
95
95
99
104
104
95
96
92
94
99
106
105
88
101
106
110
113
104
109
106
107
111
96
95
116
104
102
103
106
103
113
95
105
109
115
102
92
91
94
90
108
108
92
89
98
98
114
102
113
100
110
101
104
119
112
119
101
100
94
107
115
110
89
86
102
113
107
115
99
97
93
107
105
107
104
97
103
97
94
85
100
110
100
93
89
106
98
103
95
100
97
100
106
93
113
109
97
93
97
100
91
96
95
90
92
87
96
97
98
92
101
97
95
83
86
97
106
90
94
93
91
102
104
111
99
100
101
107
99
92
86
97
97
102
106
89
92
105
97
108
106
99
106
109
113
97
92
104
104
110
87
97
92
96
89
91
87
97
93
109
102
87
102
104
100
110
99
100
97
106
97
86
85
85
85
77
85
78
89
93
93
87
97
87
96
95
104
95
91
103
111
106
100
96
89
89
95
105
108
101
82
73
80
95
88
104
84
91
94
96
100
102
95
82
88
84
97
103
104
93
99
93
104
105
110
96
92
90
101
97
102
105
91
83
82
91
94
103
94
83
79
85
96
106
97
102
79
95
101
104
111
100
89
102
88
104
104
111
97
98
86
96
103
99
95
99
105
106
97
95
107
111
98
95
97
87
104
98
86
89
96
90
105
98
98
96
87
98
107
107
100
105
96
98
103
103
107
106
102
92
92
89
96
109
95
89
78
93
100
94
97
94
100
106
107
98
105
97
97
101
92
106
97
98
96
92
83
89
110
118
92
77
88
88
105
94
94
84
87
95
99
95
99
103
93
89
97
93
106
109
109
80
99
89
109
103
111
98
72
84
92
98
106
96
94
95
90
90
101
104
100
97
79
103
107
120
109
85
91
96
99
101
112
95
73
86
89
94
98
97
73
83
94
104
105
108
99
84
91
95
107
103
95
87
73
91
112
100
97
94
89
85
97
95
98
88
89
98
104
97
94
86
96
101
116
96
91
86
94
98
96
93
91
94
85
84
95
86
105
89
90
92
90
103
98
103
94
100
90
86
98
94
100
91
90
97
81
84
87
102
97
99
87
85
92
104
102
95
89
86
91
90
106
101
89
86
74
90
92
95
88
78
89
95
89
95
81
87
83
86
81
93
98
93
95
89
92
96
98
111
99
105
92
89
103
106
110
102
83
90
90
90
93
96
107
89
81
91
98
112
102
94
85
94
108
112
107
103
93
94
82
101
100
108
97
98
97
107
107
96
97
98
101
102
102
97
104
95
92
90
95
114
109
101
94
85
77
91
102
95
91
74
69
97
116
96
88
90
86
95
100
106
99
97
92
84
88
97
91
96
83
97
82
90
90
93
82
90
89
90
102
104
98
82
89
106
100
105
98
88
96
87
93
103
92
106
100
91
89
90
93
107
103
93
86
86
97
105
113
89
105
98
108
104
107
104
102
109
103
100
106
98
100
95
90
95
94
108
105
98
88
92
96
99
113
102
90
104
107
109
110
96
89
95
93
103
102
100
93
85
85
92
95
98
95
84
85
97
93
109
96
109
97
99
96
103
92
90
88
94
96
93
99
85
88
94
94
101
88
99
97
105
90
100
104
101
98
87
77
90
88
107
105
106
79
82
91
94
112
97
95
85
83
98
112
105
100
95
88
93
105
123
110
103
106
101
108
110
106
97
96
106
105
104
112
104
101
101
94
102
101
99
94
93
98
102
97
100
91
98
83
91
98
104
96
89
95
89
96
96
98
92
91
102
88
98
83
98
87
95
101
98
92
87
81
84
84
94
91
86
97
92
97
97
104
103
91
105
106
105
106
91
100
108
120
114
110
99
99
107
102
112
108
89
85
96
95
102
94
101
91
100
105
117
111
91
98
100
109
107
111
105
87
99
96
96
114
91
96
96
94
96
95
92
92
92
97
109
100
100
86
84
88
91
106
103
101
87
87
104
98
101
94
90
87
103
114
110
106
92
94
104
110
108
98
102
89
105
104
106
110
99
105
109
115
113
106
89
88
95
105
113
104
100
89
97
111
114
116
100
91
104
111
112
99
100
91
104
110
99
95
93
102
99
98
99
92
115
101
108
106
95
99
103
114
105
91
91
100
99
101
103
93
97
96
105
104
107
105
110
102
92
105
104
101
107
93
101
92
100
93
98
104
105
96
95
104
99
111
101
84
97
84
92
91
104
110
103
97
96
101
94
94
89
101
95
98
99
93
92
97
101
98
109
92
90
84
85
94
105
104
103
90
96
106
106
104
107
100
94
100
106
102
105
121
110
97
90
99
119
119
116
110
88
95
106
120
115
108
94
79
92
106
118
122
113
91
96
103
114
111
110
96
104
86
99
100
98
96
92
87
103
104
102
92
82
89
105
111
112
106
93
95
96
113
114
98
79
89
95
102
101
93
95
98
100
102
105
116
108
105
93
100
118
113
118
98
102
107
110
110
115
103
97
97
111
102
113
116
110
114
104
111
107
106
108
120
103
104
103
122
107
108
102
104
102
108
110
120
106
103
104
115
110
110
108
104
95
105
111
99
94
96
116
107
102
109
107
100
94
102
109
115
100
106
104
96
118
108
104
98
106
103
93
107
96
94
81
88
97
98
110
94
88
82
94
104
105
113
97
94
89
92
113
104
113
92
95
87
103
104
98
103
86
90
97
114
109
99
86
102
99
109
105
105
105
111
104
108
108
110
106
107
101
95
100
108
96
93
106
98
100
97
104
110
99
102
103
101
107
99
102
101
112
107
113
106
91
98
95
106
102
111
109
89
93
91
107
114
111
103
101
98
104
118
108
107
98
94
106
113
114
95
103
106
100
103
99
108
99
96
89
94
94
99
105
87
106
108
109
121
105
115
109
110
96
106
104
108
104
103
106
110
94
107
101
114
100
103
109
113
104
109
104
100
110
113
103
105
105
102
98
95
120
108
108
108
111
106
104
111
108
109
95
108
96
103
101
116
97
98
106
110
95
97
93
102
109
102
105
92
105
116
116
106
92
107
103
104
105
104
92
96
88
95
92
96
99
101
97
94
87
93
104
103
93
89
95
104
112
100
87
85
90
90
94
102
103
102
91
87
95
93
104
105
90
101
88
100
102
106
107
96
91
96
111
103
99
92
98
116
107
109
106
102
109
108
117
108
120
111
111
130
104
103
108
114
102
100
103
96
98
107
108
105
104
107
109
110
113
106
99
101
105
106
103
105
101
97
107
92
99
98
93
100
97
101
98
104
113
111
93
97
105
106
103
102
101
108
99
90
89
99
101
102
102
107
97
96
100
88
102
105
111
102
110
107
92
101
107
110
114
107
104
104
113
118
105
97
98
101
105
107
100
88
99
96
103
105
98
107
109
105
109
100
101
108
116
112
104
86
97
91
111
98
83
78
96
97
96
93
86
104
114
111
106
101
104
118
122
109
103
100
107
106
105
97
77
94
93
98
105
103
93
82
80
95
105
106
99
71
80
87
121
126
109
90
88
91
112
116
109
100
88
93
101
112
118
93
95
79
96
98
97
98
85
76
83
98
98
118
104
88
88
102
110
114
113
109
97
101
105
115
98
104
87
75
86
94
104
105
95
93
88
104
107
119
113
108
105
102
103
116
111
111
102
105
98
115
112
116
94
92
95
117
116
110
103
90
83
98
103
109
97
114
91
99
106
112
106
100
95
92
104
99
95
106
96
110
98
105
98
97
90
89
106
93
105
111
104
100
97
104
105
109
103
99
99
115
104
102
97
82
99
98
115
113
106
95
84
97
94
110
116
107
111
91
99
101
108
102
111
106
107
103
88
108
116
110
118
101
108
96
96
101
105
95
93
104
92
99
98
103
94
102
111
110
111
99
91
95
111
105
106
101
80
92
100
98
97
95
94
92
95
94
90
84
87
98
90
99
101
95
93
91
97
97
108
99
96
90
90
97
105
114
104
102
90
96
106
105
98
88
95
98
93
84
92
88
100
97
94
94
95
106
100
100
97
102
103
113
118
118
109
115
118
111
113
105
93
90
97
91
101
91
94
104
94
100
102
103
98
105
103
88
97
102
109
111
105
104
86
99
111
104
101
93
82
88
103
96
82
98
92
100
87
101
102
103
104
101
96
110
114
117
95
99
96
105
97
97
87
80
85
108
99
84
71
74
86
109
101
100
90
106
104
110
109
114
114
97
97
83
90
101
96
101
85
94
103
117
104
107
100
97
113
127
128
128
110
110
101
108
101
105
106
107
110
91
103
85
98
104
102
92
85
78
86
97
99
107
98
110
115
103
108
95
87
96
96
92
82
100
91
94
94
98
101
102
110
90
100
103
106
109
98
97
97
100
111
110
102
104
108
108
123
103
100
92
93
97
106
96
94
88
98
95
89
87
91
94
86
101
102
100
98
100
98
103
108
112
108
108
97
89
92
85
106
102
109
108
114
113
105
110
123
115
118
107
110
118
113
98
87
79
69
57
50
70
92
108
135
129
118
101
101
113
114
105
98
86
79
73
93
91
99
98
102
108
123
123
142
133
123
111
114
86
86
88
92
85
93
97
91
87
79
70
57
42
48
56
75
95
91
96
98
116
123
138
111
97
84
101
109
110
105
86
94
109
111
97
98
106
95
104
105
117
115
114
96
96
95
95
103
93
97
89
89
96
91
97
92
83
96
107
132
134
150
160
170
182
189
187
159
89
35
-2
-2
2
39
62
77
102
120
116
106
92
77
60
91
88
94
92
70
76
93
116
122
125
97
116
124
133
145
155
152
163
139
126
81
40
28
15
23
39
86
92
95
85
77
83
107
129
136
122
68
47
46
49
60
61
80
85
110
116
132
129
112
108
106
121
122
132
122
110
116
108
101
112
109
107
120
96
100
120
113
120
101
84
67
86
87
84
77
94
113
133
101
79
59
65
77
93
98
114
117
130
126
107
101
111
112
122
96
92
75
99
102
116
94
81
90
91
96
95
89
89
91
95
97
90
96
91
83
75
67
81
97
93
109
108
91
107
110
110
99
106
106
109
116
125
115
107
106
113
112
110
112
108
98
119
124
156
192
222
226
178
111
65
6
-21
13
25
59
94
118
128
138
128
121
119
116
98
68
32
-8
-33
-7
28
73
95
119
134
152
159
144
152
148
159
184
209
209
149
115
56
10
-1
31
49
62
77
77
90
103
121
129
125
108
116
117
133
118
100
71
40
33
10
25
70
78
93
95
114
130
129
115
88
97
100
101
101
104
106
98
97
91
115
137
143
132
114
121
133
149
142
153
130
138
158
150
129
75
24
-3
-38
-56
-45
0
61
108
138
145
145
135
129
106
82
59
28
33
-11
-18
-7
54
102
129
173
172
173
174
168
178
184
188
169
116
24
-62
-86
-99
-62
-7
80
142
192
187
98
53
47
73
93
118
132
136
152
142
136
114
106
110
108
109
120
106
124
109
109
104
91
91
95
92
93
83
46
46
69
93
104
108
108
117
123
119
91
75
58
55
46
36
32
32
41
64
84
90
101
112
112
107
110
101
109
110
121
109
98
96
92
92
105
104
97
90
83
74
81
93
101
110
101
112
120
149
159
167
176
169
170
152
93
23
-9
-18
-23
-21
-12
-3
-4
9
5
32
62
84
100
113
111
118
130
137
135
116
113
110
120
116
120
117
109
99
94
78
79
88
82
64
59
49
48
45
51
65
80
71
79
85
100
117
126
116
121
100
98
96
108
107
120
101
99
114
111
100
103
112
116
106
118
111
117
117
108
98
104
95
105
95
102
102
103
81
100
96
91
64
38
33
36
55
65
68
78
95
95
99
108
109
107
120
112
128
123
132
168
204
226
236
242
277
283
258
197
119
72
19
-36
-86
-175
-232
-290
-315
-283
-256
-178
-91
-8
47
70
102
138
167
187
192
183
167
162
170
165
151
154
135
148
148
148
149
166
154
142
154
161
172
191
180
149
135
138
156
149
145
124
107
95
104
101
78
61
16
-33
-59
-57
-41
-32
-9
8
29
57
91
112
122
116
118
123
148
166
164
156
143
164
180
193
213
208
193
185
179
186
169
137
78
17
-30
-31
-42
-58
-74
-95
-112
-77
-59
-27
-31
-27
-55
-54
-9
48
90
135
147
135
134
127
115
92
76
60
85
127
164
166
143
144
169
191
196
200
186
174
155
133
132
112
119
88
75
48
52
52
53
22
0
36
92
120
150
156
138
136
112
88
52
6
-1
3
2
1
14
14
30
41
42
51
63
92
118
129
114
136
143
179
191
211
213
195
179
150
145
130
96
58
29
20
7
28
40
42
52
64
81
77
75
67
89
121
151
169
156
120
90
62
60
62
70
56
64
63
71
94
115
120
135
147
143
134
140
154
153
158
142
128
135
145
137
116
93
71
35
40
79
123
147
163
118
70
16
-20
-35
-40
1
21
10
25
56
74
92
73
59
60
54
16
-4
-36
-51
-65
-73
-74
-41
-36
-37
-23
28
84
145
173
205
230
245
252
257
253
242
242
223
232
222
215
184
175
155
153
138
138
134
112
114
111
97
107
109
107
93
84
76
82
92
95
88
80
76
68
79
93
99
91
86
87
84
94
96
79
72
57
56
58
51
81
87
89
100
107
118
134
146
156
149
135
144
147
149
135
119
105
75
32
-3
-9
-29
-77
-76
-59
-22
-2
17
41
49
76
85
72
86
100
130
150
160
158
145
116
96
113
110
124
127
125
87
113
110
137
149
175
186
189
164
159
151
125
99
78
73
82
103
124
157
166
187
195
193
195
197
187
174
155
127
73
26
-3
-46
-92
-112
-121
-111
-102
-68
-52
-56
-23
23
71
115
130
111
72
57
34
29
26
25
45
92
112
147
155
184
218
253
252
265
248
234
237
220
181
170
180
184
199
191
180
182
189
182
180
155
130
123
91
49
23
1
4
10
43
79
113
98
72
66
59
33
7
-12
-18
-36
-53
-19
-4
8
29
38
57
74
85
101
133
142
158
167
179
164
141
107
63
41
63
115
136
97
89
72
53
11
-11
-12
15
42
55
83
91
90
95
89
78
81
87
103
104
121
115
111
94
121
126
143
147
146
156
184
208
212
203
193
180
154
157
144
124
126
129
149
141
108
118
100
81
49
46
52
68
93
118
143
140
138
104
72
47
52
70
58
56
20
-25
-55
-63
-47
-4
23
60
89
115
123
142
151
151
149
157
162
162
146
149
147
148
159
148
146
144
128
104
125
115
111
111
102
95
102
122
103
107
114
90
101
118
112
121
104
101
95
108
102
135
122
112
84
62
73
87
112
111
100
100
111
118
129
121
126
114
108
88
81
77
95
74
40
13
26
29
43
7
2
-12
22
17
42
54
76
46
33
26
23
27
50
112
145
152
111
95
109
128
127
118
126
142
168
175
174
160
155
149
149
157
150
141
140
126
146
160
176
189
194
165
139
119
125
139
130
102
74
79
83
108
121
134
141
135
117
113
127
116
85
53
-15
-58
-96
-118
-144
-164
-246
-253
-212
-142
-68
9
74
137
210
264
286
299
297
306
324
333
335
316
312
295
255
248
227
227
200
172
136
85
42
-2
-50
-110
-157
-182
-205
-221
-224
-206
-146
-101
-21
70
137
142
92
58
83
111
135
125
114
133
126
114
162
170
123
109
111
137
156
172
170
178
157
134
127
117
116
119
139
165
180
189
202
185
125
82
57
71
132
165
199
180
149
142
116
79
14
-15
-42
-51
-81
-89
-67
-19
17
53
64
86
107
141
161
156
148
138
124
126
129
137
128
114
106
119
136
130
124
102
116
109
107
113
108
98
91
64
54
24
19
36
78
91
111
88
78
57
51
37
44
66
94
105
118
124
131
144
143
161
152
148
143
148
147
144
137
119
97
85
69
42
31
22
42
73
108
131
114
87
58
22
13
32
54
68
64
50
77
110
122
146
171
186
172
143
123
119
104
98
97
111
110
116
121
100
104
103
114
114
115
107
95
88
112
111
105
114
89
96
88
85
89
89
102
102
99
86
84
100
92
97
90
94
90
90
89
97
85
78
83
80
92
87
88
87
83
92
90
91
91
85
93
101
95
90
97
83
86
91
91
92
90
80
86
79
89
90
98
86
82
89
90
99
94
70
85
83
98
87
80
84
84
92
86
88
77
82
88
94
95
93
87
80
81
96
99
100
81
82
79
91
104
90
104
81
86
90
99
103
97
76
84
81
101
92
93
88
89
99
98
96
94
90
99
95
103
106
96
90
85
88
95
104
102
100
100
96
88
87
93
110
106
97
91
91
94
111
119
102
92
82
85
101
92
101
86
91
91
86
90
101
107
104
100
87
86
102
94
94
80
72
90
83
94
89
80
83
74
83
92
94
96
96
83
81
88
79
75
90
80
85
72
78
73
92
93
88
97
85
82
89
94
94
94
97
96
87
83
78
95
86
94
86
77
81
86
94
90
90
82
92
95
94
88
82
92
87
92
107
103
101
88
90
86
94
96
100
81
83
90
95
107
104
93
78
87
98
108
94
92
83
85
87
92
93
88
103
83
82
79
91
106
90
93
75
83
85
89
96
80
77
76
74
96
99
98
84
71
70
80
103
100
102
74
61
76
83
109
100
93
75
82
100
101
108
94
93
83
93
92
102
104
99
83
82
95
104
107
85
73
73
88
93
96
89
87
75
94
97
110
115
102
87
94
98
100
103
106
90
71
93
94
105
93
99
83
93
98
106
102
104
88
89
90
95
91
95
94
96
86
100
92
95
92
75
80
100
100
95
91
85
82
95
97
95
96
93
87
106
101
86
86
85
91
92
86
88
95
95
87
79
79
87
107
108
101
90
88
91
96
112
96
95
100
94
106
94
102
94
95
93
77
96
95
98
92
96
92
92
107
102
107
100
91
96
100
108
103
103
92
96
94
98
92
100
101
100
102
102
95
93
104
100
103
90
93
101
99
96
93
84
85
101
94
99
100
93
98
85
90
100
104
97
91
86
77
91
86
96
91
90
91
86
105
106
95
105
93
85
94
91
106
97
86
83
77
92
97
100
77
74
84
94
101
91
100
93
100
95
101
99
101
99
87
89
89
105
108
97
85
81
95
103
108
106
99
86
91
85
106
104
97
91
88
88
100
116
104
99
99
85
93
109
126
97
84
88
84
98
104
105
101
88
71
81
92
116
113
103
86
72
87
96
91
89
83
88
86
91
94
95
91
89
79
90
88
106
99
95
85
83
87
97
105
99
88
81
92
89
86
101
105
106
93
92
75
80
109
100
99
94
79
93
83
98
108
108
93
88
106
118
114
89
90
94
103
120
100
109
91
99
94
97
108
96
95
80
93
100
107
99
88
94
97
102
103
104
92
93
95
99
97
108
106
92
99
96
94
94
100
109
97
103
90
99
94
99
103
102
112
112
93
89
92
99
98
99
97
92
100
103
95
94
94
87
91
90
93
87
104
86
89
90
93
102
104
100
91
98
82
90
92
92
89
85
74
85
84
88
87
84
74
84
101
100
104
95
85
83
91
106
96
96
97
87
89
95
100
98
95
92
78
78
81
82
87
98
98
83
81
84
97
108
102
81
83
83
97
98
90
89
79
97
97
97
99
86
86
83
89
94
91
97
89
88
83
76
86
93
87
92
86
84
90
86
88
91
80
88
97
87
92
96
101
87
91
81
85
95
93
98
95
84
86
80
100
104
100
89
79
82
82
95
107
88
88
82
92
95
108
95
96
83
90
87
100
101
88
101
88
97
85
84
96
90
103
96
90
84
85
99
105
102
87
92
93
103
100
94
85
91
95
92
89
89
91
79
90
87
94
91
96
95
82
75
99
101
115
103
89
82
92
96
99
82
85
78
83
97
93
87
83
88
80
80
79
96
96
84
72
66
85
97
101
95
86
63
99
96
113
102
92
67
77
77
93
100
97
68
71
70
93
100
92
88
68
77
91
106
102
105
85
86
97
103
113
102
100
82
71
88
93
97
88
86
79
86
92
95
94
85
89
102
94
91
96
88
93
88
90
94
90
95
88
87
96
96
92
83
84
82
89
85
103
89
76
81
85
84
90
101
87
92
69
69
86
97
109
89
85
82
94
94
96
93
86
71
78
79
83
96
86
73
75
70
77
93
97
101
82
79
87
91
104
99
95
84
79
93
95
102
78
79
73
96
87
98
78
79
78
91
97
103
100
101
87
84
88
86
105
95
93
85
78
90
94
107
94
90
73
77
86
96
100
88
88
94
82
96
98
95
84
82
86
84
94
101
92
89
103
92
98
92
103
90
89
85
87
85
89
90
96
72
82
91
93
85
91
71
73
80
85
93
84
89
78
78
86
84
86
97
88
75
83
75
80
75
100
79
84
74
73
87
90
104
88
87
97
99
111
94
90
81
84
83
97
105
96
89
89
83
92
83
91
98
86
96
83
80
84
97
101
92
85
86
88
97
109
108
85
82
81
87
93
94
84
77
81
84
84
86
90
77
94
92
94
97
89
97
87
91
84
85
96
81
84
74
75
84
72
83
95
82
80
90
93
88
91
82
83
79
94
83
87
83
73
83
86
89
91
90
94
98
86
83
93
95
102
90
88
84
93
86
88
89
93
89
94
99
81
91
85
101
87
96
84
89
98
100
101
98
85
90
94
108
107
103
79
81
79
108
98
103
88
84
87
90
101
104
101
97
97
90
94
105
105
92
83
82
87
93
94
89
80
77
90
87
95
92
77
90
94
91
89
83
81
88
89
97
85
83
68
84
94
95
97
71
82
87
103
95
91
80
73
81
83
84
83
80
74
72
75
81
96
92
89
93
89
93
97
98
97
88
91
90
96
94
86
91
93
101
94
85
81
97
94
99
107
85
83
76
86
84
104
94
71
76
90
96
96
93
87
91
87
95
90
105
97
96
75
78
83
90
94
77
86
71
84
79
81
98
95
95
87
77
81
100
92
86
65
78
78
84
74
83
93
71
81
80
84
97
98
92
97
95
86
89
83
85
89
97
81
81
82
78
79
84
91
85
89
94
98
101
96
101
106
103
95
105
102
105
99
95
83
79
97
103
105
99
90
80
94
96
108
117
86
86
75
93
96
111
106
84
90
84
103
102
105
93
88
90
92
87
94
90
83
92
81
99
94
97
91
86
91
98
98
93
89
87
86
89
90
97
92
87
87
85
88
107
109
103
80
72
92
100
105
91
91
80
83
99
95
108
100
92
97
104
95
97
100
93
97
96
109
95
92
100
84
85
81
93
86
98
92
97
87
95
106
106
111
103
93
86
96
95
96
95
78
92
98
98
86
92
93
97
97
94
102
101
100
94
98
89
84
92
97
104
102
102
95
85
87
80
107
99
101
82
84
81
94
98
90
83
89
88
96
94
90
89
82
90
97
101
97
96
92
97
93
92
87
75
94
99
83
90
74
92
103
92
87
93
96
93
94
93
93
107
102
106
92
94
88
89
90
91
91
83
83
94
90
97
92
107
94
98
104
100
92
105
98
99
91
106
107
97
97
91
100
103
109
96
95
88
103
100
102
106
103
93
89
106
110
112
95
96
101
93
102
109
109
98
103
92
88
105
101
102
100
102
99
95
97
93
106
107
99
92
84
110
98
101
95
104
92
102
105
93
98
90
104
96
110
101
86
91
89
101
109
108
104
88
98
107
108
106
104
107
97
101
107
110
104
114
115
92
95
90
103
109
107
97
83
100
100
115
101
93
96
91
107
106
103
97
99
97
105
114
101
95
86
98
114
115
103
88
91
92
99
104
95
88
89
91
86
93
96
94
92
94
102
92
103
106
91
84
101
99
105
99
95
91
100
113
108
98
109
101
92
100
109
92
94
110
91
90
107
103
99
97
94
99
108
96
100
96
94
103
93
101
107
94
95
87
96
102
97
93
95
103
106
107
93
87
101
97
97
93
109
100
91
89
93
108
97
105
98
88
106
106
105
92
96
97
105
110
108
96
88
97
100
97
96
97
95
84
95
90
97
98
97
105
90
96
102
107
101
90
87
85
93
101
104
105
94
95
88
114
104
97
98
98
101
100
101
90
94
94
92
93
95
93
102
96
94
93
91
111
109
101
96
93
93
92
101
107
100
90
97
100
113
99
98
96
97
103
106
108
93
94
94
90
103
102
108
101
91
89
89
96
97
106
99
97
93
83
106
109
112
94
93
92
105
104
94
91
92
85
96
92
103
99
97
98
93
100
96
108
103
103
89
91
93
90
97
93
97
84
90
107
101
93
101
102
94
93
95
94
98
95
83
90
95
93
89
97
92
97
96
90
90
91
92
101
97
95
101
85
89
97
108
110
88
81
100
100
94
110
114
96
104
96
98
111
113
111
94
91
100
104
97
96
99
85
101
101
111
109
101
98
95
107
113
100
103
95
94
98
100
98
109
103
94
90
103
106
106
98
99
96
98
89
97
96
100
109
97
100
90
106
100
113
106
95
93
97
96
94
99
95
86
86
95
103
96
100
92
97
103
107
101
89
91
88
96
110
100
99
95
91
95
99
94
104
101
100
97
89
106
105
98
78
92
92
106
110
105
98
92
97
104
104
103
105
98
94
93
102
96
99
98
93
98
89
91
97
90
98
89
95
90
110
107
90
93
85
99
107
116
88
81
81
94
101
104
96
86
83
95
111
105
100
76
88
97
95
101
93
89
89
81
84
86
85
92
105
83
81
93
99
94
96
97
78
85
96
99
98
94
90
88
100
91
88
88
95
87
99
100
95
101
89
94
91
96
95
105
93
100
88
90
86
90
101
90
86
83
94
102
103
97
97
91
93
91
102
97
103
94
94
92
97
92
99
103
91
95
92
100
101
105
94
102
104
97
98
89
98
103
88
84
96
99
90
97
95
90
97
94
105
85
86
91
92
98
84
102
88
97
81
81
85
95
90
81
78
87
75
89
96
102
90
86
90
91
103
106
112
92
79
86
90
107
109
102
80
77
87
95
96
90
98
71
84
88
93
94
99
102
90
102
101
100
98
106
93
81
103
105
104
101
96
78
79
86
99
99
102
98
82
85
87
97
103
107
97
90
89
98
107
99
99
84
82
86
109
107
94
80
84
87
89
97
107
101
98
95
86
94
101
102
86
85
79
89
96
111
92
84
86
90
101
99
103
104
89
88
71
82
92
95
104
80
85
94
92
111
102
103
104
101
107
108
103
101
104
93
91
88
94
89
94
92
96
90
88
99
108
98
111
100
109
105
111
113
100
105
108
96
104
95
107
87
87
78
88
91
92
95
93
89
84
92
98
97
94
94
94
86
98
103
97
94
98
103
97
107
105
97
99
87
101
99
98
93
89
73
81
89
95
101
91
99
88
87
96
93
94
90
84
90
88
104
81
96
90
89
95
97
101
95
96
90
90
83
92
97
89
85
97
82
84
98
108
97
107
96
92
107
114
113
100
100
90
97
108
102
86
91
87
107
94
93
98
93
100
100
103
102
103
103
108
103
105
106
103
93
102
103
99
103
90
102
95
103
109
108
82
83
77
96
102
101
97
80
97
93
103
95
103
102
100
102
100
98
105
107
101
96
80
84
83
95
108
93
87
86
86
104
104
112
107
98
86
103
99
95
102
97
93
85
92
95
104
104
93
97
97
98
111
117
109
99
90
104
103
117
106
97
100
88
90
102
100
103
96
92
88
96
115
107
114
109
109
87
102
110
107
98
85
73
87
103
112
100
94
95
97
109
104
109
105
107
89
89
97
108
111
92
97
82
103
111
108
88
89
78
96
97
105
94
76
76
86
108
103
93
93
97
107
95
107
104
101
97
89
85
91
106
102
87
81
82
96
101
102
89
90
80
92
103
109
102
96
92
117
110
107
101
101
103
99
106
96
103
98
100
83
92
95
99
103
96
92
100
108
102
104
97
101
115
102
113
103
105
83
98
103
99
105
109
108
102
93
103
101
107
105
99
86
104
109
102
107
88
101
85
102
104
114
91
87
76
82
104
109
97
94
93
101
100
111
104
90
100
93
91
103
101
99
90
86
83
92
102
97
101
89
82
93
93
103
102
91
83
86
98
112
104
98
97
88
95
102
115
101
90
84
88
107
96
101
91
103
95
96
100
97
106
91
91
100
79
92
92
104
89
86
95
102
110
99
89
72
105
105
98
86
87
87
97
118
103
89
83
95
101
101
97
92
92
95
98
90
97
99
86
80
89
85
91
89
85
87
80
90
100
100
103
84
96
94
101
96
99
88
86
93
88
87
77
88
91
92
95
87
80
82
86
85
84
93
87
96
91
88
99
99
104
98
91
99
103
117
103
89
85
87
105
97
99
83
93
91
88
95
85
89
99
91
96
99
104
97
96
82
91
85
101
102
96
81
83
91
92
101
92
87
85
95
92
93
91
85
99
103
98
96
86
108
102
107
92
88
85
95
89
87
94
90
97
90
84
98
90
96
93
87
100
84
114
97
99
94
94
93
107
98
94
87
85
86
88
93
82
91
88
87
91
99
89
101
98
93
92
90
95
101
101
93
92
83
96
89
93
88
98
95
94
84
95
103
101
97
88
85
95
107
99
87
89
93
99
101
106
102
100
87
94
94
95
101
98
95
94
92
96
91
97
92
84
93
101
107
96
93
92
95
98
99
88
90
86
90
101
96
93
92
96
78
86
87
92
92
85
82
85
85
87
82
82
89
84
94
91
88
87
88
92
96
89
76
87
102
92
83
72
78
90
95
92
78
82
81
91
98
98
97
92
86
102
83
93
91
98
84
90
77
84
97
93
93
73
84
82
101
108
84
78
93
103
98
92
97
84
97
87
99
83
85
92
73
75
86
91
92
91
79
74
74
100
93
98
83
82
89
92
98
94
97
85
85
85
84
85
99
85
67
67
92
101
114
99
78
72
89
94
96
97
85
81
84
76
86
92
95
87
79
89
95
106
103
111
100
90
93
92
103
105
102
78
73
86
100
90
102
93
84
81
91
94
98
103
102
94
93
83
103
104
103
101
91
73
83
92
95
88
86
88
84
93
83
94
91
88
90
89
98
94
92
97
84
92
96
93
98
103
105
89
82
71
93
107
104
93
80
86
88
80
88
107
97
90
80
88
101
107
85
80
79
81
85
97
103
89
78
76
82
78
94
95
88
79
81
83
88
99
100
101
86
81
87
92
93
90
78
85
70
92
91
93
93
99
97
112
118
128
106
115
108
112
98
81
63
47
49
54
49
77
73
80
79
86
90
105
106
99
95
94
98
96
95
85
94
84
102
108
102
93
90
77
91
97
91
90
85
92
88
94
98
93
88
85
91
86
93
87
83
82
84
78
85
86
85
96
92
70
85
84
97
102
109
105
109
119
121
129
124
112
96
95
91
77
60
47
47
37
43
47
52
70
92
83
98
105
110
108
105
79
71
57
60
62
70
75
83
81
92
92
119
107
108
103
106
103
111
120
107
96
85
100
109
117
115
95
85
93
89
109
99
97
96
94
79
81
87
90
79
85
87
98
87
93
86
95
100
98
113
97
111
99
97
86
96
99
93
87
76
74
69
70
63
68
70
70
74
82
87
86
90
90
96
100
118
122
106
95
77
59
52
35
42
42
68
89
113
129
147
156
153
157
144
131
120
102
89
81
61
65
63
52
62
51
75
72
78
85
92
102
111
110
96
99
103
113
114
93
88
96
110
110
116
105
97
98
102
114
106
105
87
100
112
104
124
106
109
97
85
83
62
40
35
39
74
93
97
115
100
112
124
123
127
142
128
126
134
142
156
154
130
80
74
41
33
13
-13
-14
-22
4
20
44
76
94
96
97
120
124
140
136
145
127
123
125
137
149
148
132
126
139
140
152
147
151
140
131
95
67
46
28
39
36
43
64
82
93
103
105
105
110
102
109
112
114
120
123
123
135
110
87
50
34
26
13
2
7
10
33
67
83
111
131
150
152
151
135
102
87
43
39
26
45
60
86
95
94
102
121
127
119
128
104
107
111
113
100
100
111
108
109
97
90
110
122
117
98
96
83
103
102
104
97
104
112
110
117
101
106
99
98
84
68
70
70
78
80
75
70
59
60
62
67
71
80
85
99
96
103
114
130
113
112
114
114
120
113
115
105
90
101
111
133
146
146
132
110
107
109
84
87
66
49
34
41
60
76
57
62
48
80
101
126
121
124
110
108
120
121
125
114
94
96
95
106
109
115
108
98
94
86
103
91
108
99
96
90
104
131
149
137
110
98
94
71
74
61
53
50
46
62
60
81
103
104
116
121
118
124
128
129
125
118
120
129
131
127
128
119
127
143
137
142
137
116
99
82
78
70
63
41
45
41
54
80
80
89
109
128
126
124
130
108
90
58
34
29
28
35
43
56
67
84
116
125
136
128
117
132
124
124
111
114
93
93
92
97
99
87
100
90
88
110
124
131
122
128
140
147
148
130
113
63
49
25
12
31
33
39
42
55
59
82
76
86
93
98
107
102
114
117
109
97
109
111
123
132
125
108
106
101
87
92
93
97
87
92
93
89
92
63
47
16
20
36
86
118
134
125
125
123
132
136
127
111
112
127
121
123
119
119
110
93
72
54
57
65
61
67
66
75
90
83
86
86
83
90
101
102
105
110
100
86
98
97
97
107
108
100
86
89
92
103
112
106
92
90
96
102
108
94
100
86
77
83
90
106
98
88
73
75
112
136
157
158
140
127
100
91
73
52
21
-12
-25
-18
-3
29
34
57
67
97
117
142
148
133
135
143
158
160
150
124
110
98
118
113
114
108
100
101
106
122
116
122
120
124
129
137
131
132
119
139
121
122
97
62
33
-25
-65
-95
-122
-116
-95
-67
-29
36
70
96
114
131
147
163
161
152
132
133
141
141
146
140
126
122
126
131
132
121
115
122
106
122
124
124
107
93
94
111
106
109
90
83
92
92
96
113
133
132
131
92
76
60
47
26
11
25
42
57
86
96
121
107
125
149
170
209
193
148
101
40
-25
-68
-93
-92
-56
-3
50
95
121
132
149
147
139
125
98
85
65
63
65
74
97
113
105
102
103
112
92
100
94
102
102
102
109
111
125
106
93
88
101
107
112
114
131
127
138
148
146
148
160
159
165
148
151
133
111
83
51
46
42
33
23
25
32
37
52
60
76
85
111
122
139
172
220
255
246
190
119
35
-31
-98
-142
-165
-103
-41
-8
37
71
119
154
166
192
223
258
285
297
267
215
151
65
36
39
18
15
7
44
47
49
73
86
101
144
192
248
313
355
302
237
156
98
25
-23
-78
-116
-172
-218
-250
-262
-224
-203
-171
-107
-64
-11
39
72
120
131
177
203
213
214
215
209
225
226
239
210
205
191
197
188
176
161
152
149
127
119
124
121
115
104
106
92
94
97
94
84
90
103
125
164
183
162
139
104
22
-28
-57
-48
-31
-5
17
39
94
118
96
68
34
47
51
70
89
92
68
90
93
130
141
135
138
117
119
123
123
122
114
103
79
79
90
78
87
82
66
75
95
129
180
195
196
149
101
65
60
66
86
84
122
148
177
173
139
52
9
-38
-60
-72
-85
-115
-121
-113
-72
-16
47
95
106
113
130
155
171
175
161
148
146
145
154
158
162
135
121
121
132
129
141
134
117
99
116
114
124
121
118
106
104
105
122
121
111
107
112
107
102
110
109
103
87
89
88
104
90
91
83
81
81
93
106
107
113
98
85
98
99
108
111
102
98
98
125
150
188
183
195
158
128
75
43
7
-44
-62
-51
-38
-34
-14
12
40
66
96
121
144
192
247
334
422
502
556
538
436
265
77
-100
-293
-445
-540
-581
-536
-427
-289
-176
-97
-20
39
74
59
44
41
78
91
143
183
211
206
190
177
170
167
166
183
181
204
224
238
268
275
292
285
245
183
101
45
-11
-39
-23
12
62
102
111
130
143
167
195
234
284
330
387
385
370
300
201
70
-62
-201
-274
-311
-319
-273
-185
-88
-15
57
93
113
108
106
110
120
124
131
143
136
158
148
162
151
169
177
194
206
181
169
132
64
-8
-34
-62
-97
-127
-126
-98
-70
-43
-65
-92
-120
-137
-146
-115
-46
32
120
191
208
204
205
234
247
268
267
248
203
174
171
161
154
146
151
158
175
183
202
218
201
179
183
169
157
156
178
199
223
265
282
267
264
234
186
147
89
3
-138
-278
-358
-373
-309
-221
-71
72
182
188
146
73
8
-72
-240
-360
-378
-328
-214
-87
39
143
243
319
375
403
426
460
479
462
442
404
297
183
94
33
-52
-134
-170
-155
-92
22
165
244
309
323
306
209
141
94
66
48
63
26
-33
-136
-167
-157
-175
-207
-216
-137
-49
3
2
-15
1
35
78
135
205
260
280
247
187
112
76
52
39
66
118
168
172
204
225
226
204
199
210
214
228
230
210
189
184
147
108
14
-96
-182
-198
-124
-2
122
245
310
276
165
32
-73
-159
-213
-212
-156
-118
-57
-2
53
80
87
111
114
131
139
151
160
169
174
182
189
207
211
227
234
218
157
92
56
39
53
70
82
125
165
202
276
277
272
233
135
-75
-251
-375
-431
-384
-298
-193
-95
2
72
105
144
175
195
211
206
190
179
163
171
167
163
151
125
118
110
107
119
133
130
137
150
173
186
174
155
144
135
148
144
146
127
117
102
109
114
118
95
69
65
61
91
118
133
139
133
108
85
64
44
12
-1
8
20
38
64
89
108
131
141
118
69
19
-52
-115
-128
-137
-81
-6
54
80
82
117
132
166
191
224
254
281
300
341
363
373
358
327
254
186
106
44
5
-72
-136
-214
-245
-208
-153
-99
-59
-31
-26
-6
6
34
66
99
136
135
131
142
155
149
150
158
163
170
168
152
167
173
163
124
88
53
43
35
49
88
121
149
160
173
190
191
200
205
225
238
264
276
302
285
240
182
114
-7
-150
-263
-336
-370
-377
-378
-339
-268
-186
-93
-22
44
114
164
194
217
259
287
321
361
392
399
317
190
58
-50
-73
-65
-44
-5
5
-59
-137
-212
-211
-183
-134
-73
-25
40
86
125
162
190
208
218
219
242
242
231
222
225
226
214
201
182
174
156
131
108
98
85
97
80
65
57
62
64
65
55
52
45
53
48
54
47
54
40
43
42
43
40
50
64
69
80
71
83
73
75
83
72
73
72
83
59
56
68
80
71
74
73
75
78
90
84
87
87
74
79
66
74
78
86
85
81
70
78
83
88
91
83
72
88
85
97
106
94
90
92
105
106
102
94
92
96
84
94
82
95
101
93
96
98
93
94
100
98
94
101
108
103
103
90
85
102
104
93
106
88
94
90
95
97
89
95
93
96
91
82
97
100
100
96
92
90
82
77
86
91
93
88
94
80
91
89
94
90
83
84
84
88
81
80
77
70
86
73
89
77
74
76
86
84
93
83
76
87
88
77
99
82
88
76
79
89
86
78
76
69
72
77
82
77
83
81
85
84
95
82
90
85
81
85
90
87
80
77
72
73
84
92
75
73
72
66
75
79
80
84
68
71
74
73
81
86
82
65
69
70
87
94
82
83
69
76
81
83
76
77
74
69
76
79
78
72
72
70
56
66
69
80
74
72
70
72
67
84
61
65
78
78
74
77
69
78
74
83
83
81
73
76
62
71
79
80
91
80
76
78
81
84
75
78
88
85
85
91
86
82
89
82
76
80
73
79
93
80
91
70
73
85
89
84
88
95
87
83
85
84
86
90
97
86
86
83
73
97
91
79
86
95
87
84
85
88
84
74
85
79
90
73
83
82
91
75
74
74
89
87
84
81
70
81
77
85
94
84
70
74
68
79
85
84
75
80
80
84
71
78
79
83
85
80
70
78
84
94
82
87
76
74
80
95
95
93
88
90
76
80
86
81
91
93
86
77
69
86
84
100
92
80
74
79
84
89
87
92
82
86
92
88
86
84
78
75
79
96
89
89
77
86
76
77
101
88
82
84
81
85
87
91
78
81
84
75
76
70
87
94
83
81
81
72
89
80
82
78
82
79
84
77
79
88
77
89
78
79
77
94
84
100
92
84
83
75
73
87
91
84
80
59
88
75
80
90
89
91
85
84
78
81
85
95
97
65
74
79
88
100
94
82
91
94
96
95
95
88
88
86
74
81
85
87
81
91
81
80
75
74
83
94
91
96
83
91
90
91
94
88
94
92
83
85
84
87
85
91
74
73
62
86
82
80
81
75
78
80
95
91
79
75
78
85
80
92
78
75
73
87
90
96
87
75
84
89
89
80
75
73
84
89
89
80
84
91
84
90
85
93
84
77
86
93
94
91
73
90
87
88
101
105
96
84
83
94
100
114
98
78
73
85
94
79
83
78
87
96
100
99
94
80
86
74
101
95
97
92
92
81
89
97
86
84
89
88
83
91
101
89
81
90
79
84
89
96
92
96
90
74
76
87
96
95
79
66
66
87
100
99
84
75
76
76
94
104
101
86
68
75
89
103
95
86
71
77
95
103
100
96
81
73
91
96
105
96
85
88
88
105
100
97
90
84
82
85
94
96
93
79
84
92
99
99
105
91
94
90
89
95
87
93
88
85
88
94
90
100
98
89
85
87
99
95
100
83
76
86
82
95
94
82
88
88
88
86
91
81
92
87
88
85
97
88
88
85
98
82
98
84
83
81
91
88
80
76
72
76
78
85
84
86
85
78
93
78
92
97
100
105
85
75
69
90
98
96
82
75
79
91
91
102
75
88
81
87
91
93
94
85
97
75
87
94
103
97
87
76
72
82
108
106
99
76
75
83
92
85
82
93
81
75
81
73
106
104
89
86
75
97
110
105
97
73
81
82
97
98
93
81
80
86
96
93
94
82
96
94
92
91
104
103
94
92
85
79
89
89
91
85
89
71
84
88
91
94
77
78
75
89
80
89
96
89
94
78
81
93
108
98
92
89
91
96
98
97
97
100
98
89
86
91
97
89
92
89
102
96
99
91
96
96
102
100
99
100
91
91
91
101
90
94
80
86
88
87
94
83
95
95
92
85
99
96
94
106
93
86
89
96
95
82
99
92
83
79
87
86
93
97
101
81
96
87
100
102
105
88
82
100
99
99
85
89
77
102
108
95
86
87
96
93
88
82
89
91
87
90
86
87
92
84
101
85
83
92
86
92
84
95
96
93
104
92
78
93
97
93
93
77
83
85
99
102
96
73
88
85
96
97
91
86
80
85
78
97
88
91
85
88
84
90
105
113
93
92
91
91
109
108
90
73
82
89
99
97
99
91
80
81
91
102
107
100
80
82
95
97
95
81
89
83
83
84
99
104
98
82
88
93
93
120
104
90
76
98
97
103
93
104
79
78
86
87
94
90
75
69
87
90
90
92
86
85
89
92
107
94
107
94
96
90
87
94
92
100
85
78
84
101
100
82
86
76
88
105
110
86
88
91
93
95
109
106
91
90
104
102
110
99
93
90
82
91
93
88
93
88
91
88
109
106
106
113
98
106
98
91
96
86
91
89
79
85
91
89
100
92
84
85
89
81
107
89
94
83
86
86
87
92
85
67
82
84
98
97
101
80
81
72
87
96
102
97
81
80
80
98
93
96
92
92
93
91
88
108
95
90
84
85
97
99
101
86
87
90
102
103
98
95
93
88
92
99
105
90
84
88
97
95
93
88
83
79
80
94
84
96
93
84
95
92
95
87
94
95
97
99
75
92
90
82
73
84
91
101
87
84
83
87
106
103
104
90
85
89
80
85
90
88
86
100
90
99
90
90
82
88
100
99
98
81
87
88
80
86
98
85
87
86
91
88
98
96
93
90
79
83
93
92
105
104
90
86
99
96
102
96
93
98
90
88
90
98
90
89
83
93
100
99
104
84
99
87
81
90
93
103
91
97
80
94
106
108
97
82
79
93
84
90
87
79
79
77
90
88
105
103
85
93
79
98
93
99
95
106
83
88
86
89
115
96
81
79
75
83
90
101
93
91
79
80
95
103
101
94
79
81
79
83
97
99
95
66
69
72
100
113
90
86
80
75
80
97
101
85
83
67
89
95
93
93
86
89
82
90
92
91
88
82
74
84
98
94
102
83
77
95
98
99
85
91
98
87
97
94
85
87
88
104
107
103
99
89
86
103
97
109
91
91
93
92
96
87
94
93
85
101
87
90
85
81
88
85
91
86
82
81
103
87
99
93
95
80
95
79
82
85
91
87
87
72
76
78
93
91
86
77
82
82
102
101
96
93
79
89
91
89
85
82
93
92
83
95
92
93
73
83
71
90
88
89
75
86
77
95
91
90
96
96
96
92
94
90
99
90
100
95
93
93
85
92
72
86
91
96
91
79
89
95
105
89
94
94
89
102
98
90
76
91
85
98
90
100
83
81
81
83
95
93
102
95
88
90
91
94
81
90
83
89
80
99
94
83
77
88
86
90
97
83
100
79
90
82
98
94
103
104
94
87
92
100
103
102
97
84
81
86
85
88
82
84
79
81
99
92
100
84
99
102
105
103
101
109
95
97
102
87
97
88
89
88
84
86
96
101
91
89
77
101
105
107
108
95
87
81
92
97
109
104
98
91
82
95
96
110
108
96
85
89
95
96
104
90
88
92
94
104
94
95
88
93
88
90
97
99
99
76
85
85
99
93
92
82
85
70
86
103
101
86
86
80
94
101
109
108
96
93
83
95
98
95
106
101
88
76
90
97
99
98
94
97
106
96
105
94
95
96
100
91
90
109
111
103
108
90
95
101
103
116
102
103
99
94
105
89
105
100
98
82
81
98
107
103
92
86
94
98
108
91
91
81
95
103
106
102
103
93
87
86
76
91
93
100
99
84
82
88
104
111
106
95
85
86
83
97
89
95
78
90
86
90
97
114
112
88
80
90
101
109
99
101
88
91
86
90
91
90
87
102
89
92
97
104
102
102
107
92
98
100
117
107
91
84
80
89
89
94
89
89
101
89
103
93
104
108
97
100
89
97
95
99
98
102
96
94
86
105
105
101
83
81
83
105
101
91
83
75
93
100
113
105
97
87
83
86
93
98
84
94
82
77
88
98
112
94
99
75
81
98
104
99
81
71
80
94
104
100
89
78
94
102
99
107
82
94
93
111
108
105
98
93
94
95
103
103
102
92
89
87
105
101
102
97
90
92
97
96
96
99
105
93
100
95
96
114
110
94
82
86
85
108
113
109
90
89
89
95
114
107
92
89
86
106
103
107
106
93
97
91
100
98
105
105
106
85
93
98
107
97
95
78
78
88
105
100
91
75
79
86
95
94
98
92
96
98
86
96
101
103
95
93
85
83
90
93
79
87
73
79
87
87
100
97
73
92
90
101
105
103
92
92
104
97
94
93
91
89
94
100
102
103
97
84
85
80
87
87
104
101
87
75
82
92
100
83
95
79
89
93
100
99
96
96
98
92
91
91
94
90
107
93
82
87
77
97
103
102
87
83
93
100
92
96
87
93
89
89
86
86
90
95
97
88
85
84
97
109
102
91
76
77
96
101
89
89
82
94
90
87
88
86
101
101
89
89
88
92
104
102
86
89
103
94
91
90
94
93
99
98
89
82
92
109
117
95
97
91
102
102
105
98
86
108
105
94
90
83
104
94
103
94
92
92
92
91
96
91
92
83
92
95
96
94
83
92
87
92
102
105
95
91
90
79
99
106
100
83
88
91
109
108
98
91
84
89
88
79
75
94
91
80
84
82
78
86
81
96
103
91
92
93
88
99
99
96
106
99
86
89
87
91
90
75
73
93
93
89
73
77
93
99
98
101
94
86
97
97
112
101
92
82
85
90
105
111
99
94
92
82
94
107
106
97
75
85
86
86
78
91
78
92
88
92
100
103
116
93
94
80
94
110
104
89
71
88
85
91
96
93
96
78
96
83
91
98
97
101
87
92
89
91
87
94
90
90
86
80
89
99
90
83
91
77
86
90
95
91
80
78
86
97
93
98
81
66
84
92
106
106
96
90
74
79
103
121
101
94
78
79
85
99
100
101
97
83
87
93
95
98
99
89
89
87
99
103
102
95
87
80
85
107
102
87
87
78
94
79
99
95
95
84
85
86
92
99
96
86
92
91
94
105
98
97
92
96
81
96
95
92
92
88
88
85
93
90
96
93
93
93
83
85
87
93
81
78
92
94
89
82
81
82
89
81
96
81
78
92
81
75
87
83
89
87
82
82
91
95
83
79
81
88
94
99
103
76
89
80
99
112
97
85
83
97
96
85
91
87
87
87
97
94
97
85
95
78
105
93
109
103
91
92
89
97
92
106
91
87
71
84
107
84
96
83
85
81
91
92
89
102
87
79
70
101
96
101
87
91
90
85
87
104
102
102
92
75
82
85
99
88
79
83
93
87
90
94
83
84
87
92
89
97
96
94
89
71
82
79
104
108
81
82
88
96
105
108
89
96
90
103
100
113
96
100
84
83
91
88
101
92
91
81
99
97
95
96
88
89
89
111
95
100
88
82
84
84
101
97
92
88
90
96
103
94
91
94
96
101
97
86
101
82
101
99
89
76
88
92
97
96
82
71
84
95
80
95
77
91
72
77
92
87
96
90
100
90
85
85
93
92
93
93
98
93
92
90
92
83
78
94
85
78
73
74
80
95
95
87
93
92
88
91
92
105
89
89
93
89
92
97
95
89
94
87
92
85
106
107
97
86
78
94
104
96
89
77
72
82
86
92
102
100
85
84
92
90
95
86
86
90
84
87
81
89
92
90
93
82
88
80
92
78
87
78
82
88
93
78
86
86
87
88
79
74
82
92
97
92
72
79
88
95
96
91
89
87
89
92
97
80
88
88
83
85
85
88
93
84
83
85
89
88
100
98
96
91
87
108
106
104
100
93
94
89
104
93
96
95
93
92
89
99
99
94
97
104
98
98
109
96
101
97
96
80
101
109
99
97
96
94
100
92
90
92
97
96
96
83
93
92
80
85
88
99
98
93
80
87
95
116
102
87
92
92
85
88
108
85
88
85
88
94
99
100
95
101
85
93
81
93
99
89
85
81
90
97
92
103
103
95
97
95
92
92
92
95
103
95
106
91
76
96
95
98
91
89
87
88
97
89
94
99
88
95
88
104
98
100
93
87
86
95
106
96
91
91
94
81
105
105
91
87
83
92
99
100
98
76
90
90
87
95
101
95
84
90
89
96
106
93
89
91
94
91
89
94
89
88
89
91
85
87
92
89
93
80
77
81
82
99
103
89
87
74
89
95
94
94
95
91
85
98
87
89
90
91
92
85
84
90
89
81
77
74
93
92
90
91
91
83
83
87
96
92
94
86
90
87
88
94
89
97
92
97
101
90
93
94
111
99
98
88
83
93
94
99
92
83
91
87
92
100
100
102
80
93
98
107
99
88
91
95
106
108
89
89
85
102
85
89
71
96
93
90
94
86
95
99
94
90
96
87
94
96
93
87
85
85
91
111
95
82
78
83
91
92
81
83
87
86
90
91
99
97
101
105
99
103
102
102
97
95
100
86
96
88
100
89
100
93
99
97
97
91
98
109
99
97
95
93
98
97
103
98
89
85
93
100
104
103
114
102
92
100
105
99
111
99
101
94
98
98
87
94
82
102
87
92
85
83
95
99
94
91
95
110
94
96
104
86
102
92
100
104
104
99
97
85
78
103
88
92
90
80
89
101
100
98
78
77
84
96
107
104
91
94
89
105
104
96
95
89
94
103
97
89
98
98
84
92
88
93
92
105
90
86
90
100
98
98
88
82
91
91
106
94
98
87
89
95
93
101
100
89
83
92
95
107
95
87
92
77
93
98
90
88
97
84
87
95
104
105
88
84
84
93
102
113
103
97
81
84
94
106
103
89
87
80
88
98
95
98
88
93
104
96
96
100
94
93
89
93
89
98
82
93
88
86
91
83
87
84
86
99
93
83
90
99
88
88
102
96
87
93
94
86
91
93
98
98
89
85
85
93
99
91
89
82
92
94
105
97
88
99
85
97
93
103
92
98
90
92
90
93
95
95
95
88
95
95
92
105
102
99
82
88
108
100
106
87
93
82
85
98
92
89
82
82
97
95
96
98
100
95
100
95
94
96
97
94
82
98
102
87
83
90
89
92
93
91
99
92
86
82
86
90
95
92
80
80
95
104
104
86
83
97
97
106
101
103
88
95
92
108
99
98
92
87
90
92
96
99
95
87
79
102
98
113
97
82
93
97
100
101
87
84
98
96
101
91
95
96
95
96
85
97
105
110
87
85
93
101
97
99
90
90
102
93
101
95
97
87
90
104
103
100
93
96
106
87
105
96
106
98
99
98
84
105
102
99
94
89
94
85
109
103
94
86
86
91
106
107
97
92
96
85
95
93
104
97
89
77
78
88
101
95
95
72
83
82
105
112
98
94
79
89
99
117
85
96
77
81
96
107
105
91
94
90
94
105
105
106
90
96
93
92
96
93
85
92
89
104
95
92
88
83
84
85
105
102
94
81
80
101
98
114
98
99
93
85
81
87
99
96
94
87
79
91
86
93
92
77
84
88
92
90
96
68
85
80
89
99
95
94
87
89
101
93
84
88
84
81
70
82
92
94
84
83
75
96
101
108
102
89
82
85
96
109
107
92
87
89
88
91
95
91
91
95
72
82
87
102
105
98
90
79
96
107
106
99
94
89
85
94
96
102
81
89
89
85
87
90
100
83
90
90
87
93
103
97
79
84
95
99
91
86
85
83
79
90
92
97
87
89
75
76
92
94
96
79
76
78
84
93
98
99
85
83
82
92
105
98
89
87
90
87
92
88
80
81
80
75
79
80
89
78
90
86
89
85
82
100
95
106
97
92
86
97
94
100
104
92
87
87
81
87
93
98
90
86
87
94
92
91
87
85
73
102
99
112
104
91
99
94
113
114
108
93
83
94
84
87
87
94
96
77
76
88
100
93
97
83
91
97
100
97
94
86
84
95
89
98
95
88
85
84
91
84
87
76
90
81
93
80
91
95
95
92
80
99
93
89
87
96
99
85
87
91
88
96
111
99
83
84
83
81
89
96
90
96
86
97
93
96
100
102
107
94
95
88
93
104
105
114
101
96
93
96
101
112
102
90
88
88
108
113
123
122
121
130
119
126
125
110
75
71
63
57
77
78
71
70
72
68
84
87
104
100
96
92
91
90
100
94
94
90
94
86
96
97
100
88
84
90
88
108
99
85
91
88
95
95
106
103
93
93
90
92
95
83
96
82
89
86
97
96
88
88
89
93
102
94
95
86
98
104
105
95
89
89
95
107
96
94
84
83
94
99
96
102
95
91
88
93
92
107
104
93
84
79
82
91
106
99
97
69
95
101
102
97
96
90
89
103
96
88
85
82
84
84
86
100
85
83
89
99
103
107
104
100
97
98
96
84
90
91
95
104
83
95
96
95
85
77
78
90
99
109
99
89
82
91
116
119
98
94
90
90
104
108
100
101
96
102
99
107
118
104
92
90
94
103
117
107
99
73
90
87
103
111
106
93
86
94
102
103
109
91
101
101
90
106
96
106
94
86
87
90
107
107
98
94
91
109
112
127
130
143
115
110
100
93
93
64
60
51
54
69
73
72
68
79
85
91
93
104
105
88
86
97
95
106
95
93
92
94
103
113
99
85
94
85
85
96
90
102
96
95
95
93
110
95
105
93
96
93
114
101
103
91
74
81
93
102
103
94
88
93
95
89
108
104
103
92
86
103
99
97
100
85
90
89
93
91
96
95
85
86
106
119
117
112
117
116
110
113
107
108
120
124
125
144
153
146
136
115
111
97
89
73
69
49
46
45
65
54
56
60
66
83
108
116
131
116
128
111
146
143
144
106
100
74
56
69
59
65
72
67
75
89
104
110
111
99
95
89
105
111
99
112
107
115
133
119
124
119
123
123
122
129
132
126
120
105
104
84
70
43
24
16
13
30
49
69
76
85
101
113
129
139
150
157
171
174
182
175
172
161
139
94
49
32
5
-14
-23
-32
-12
19
44
68
96
108
132
146
150
132
125
122
126
126
124
112
114
103
84
48
21
20
28
42
46
31
54
63
101
122
128
141
141
142
152
166
158
145
103
70
53
33
65
62
77
70
62
79
92
109
114
101
105
95
111
118
126
123
100
102
73
70
64
61
71
70
87
92
109
112
121
106
105
106
107
123
99
88
94
90
106
102
103
91
95
93
87
90
90
98
96
98
84
80
98
102
97
87
78
89
95
95
111
95
94
89
98
115
133
146
150
133
132
104
73
48
42
32
26
16
22
37
54
60
63
58
73
84
98
117
106
92
102
113
119
128
122
109
112
112
122
113
114
115
120
115
113
124
145
154
157
148
125
100
89
79
69
62
56
84
83
78
82
50
41
51
64
62
66
66
83
99
87
93
102
113
129
116
124
128
112
130
110
112
95
98
109
94
105
99
99
92
85
104
107
115
113
91
102
91
101
116
110
92
86
83
77
87
86
82
70
67
76
82
97
92
85
79
77
80
87
83
73
82
94
102
103
120
124
108
107
85
67
71
65
67
49
39
30
34
58
82
88
89
95
117
120
124
118
100
106
109
125
94
102
100
117
104
105
102
98
85
78
84
94
94
90
85
86
89
112
102
97
92
91
109
119
107
94
91
93
98
102
102
108
104
105
104
107
99
101
92
81
73
68
65
78
111
105
103
103
104
101
89
88
69
58
58
57
36
38
61
86
102
121
139
124
110
114
115
104
102
88
73
62
51
55
53
68
86
88
89
98
119
131
128
127
119
109
81
80
39
35
23
25
39
69
102
128
133
140
129
148
146
153
146
132
103
85
90
85
93
90
68
74
93
122
172
202
231
267
280
249
194
102
6
-84
-124
-143
-162
-157
-122
-85
-33
11
47
77
90
101
108
133
146
159
168
169
177
184
187
192
186
174
161
127
105
80
68
60
56
79
120
154
184
190
170
123
82
35
-22
-49
-47
-38
-11
28
52
82
110
122
134
147
140
144
151
133
125
126
120
100
76
85
78
86
89
84
75
84
117
116
117
101
96
107
98
107
107
98
98
93
85
91
101
100
100
95
92
93
106
108
113
115
118
119
132
125
108
87
72
46
40
49
46
38
32
41
49
58
74
87
86
82
88
94
103
103
115
111
118
118
107
114
113
106
83
101
101
103
101
103
103
103
98
116
114
108
108
100
101
99
110
96
104
88
94
87
88
96
98
107
100
90
81
99
111
105
110
96
101
102
119
122
128
111
114
104
115
117
119
112
91
92
85
84
95
83
72
70
63
70
64
66
73
74
82
79
91
103
110
108
106
98
95
92
102
99
88
84
79
82
81
101
101
115
112
87
85
83
98
119
125
130
134
135
134
131
131
100
82
51
21
33
36
69
112
173
237
265
189
108
64
25
3
-37
-52
-43
-22
-17
7
16
2
-16
-7
36
75
88
100
123
139
147
173
160
152
138
127
111
106
109
121
130
146
165
183
216
201
131
74
42
16
16
5
13
20
24
37
52
64
88
97
105
116
116
116
126
144
163
190
223
231
242
256
227
130
23
-39
-45
-32
-13
1
29
48
76
93
120
118
128
120
118
116
105
115
114
101
106
81
77
74
89
91
90
102
87
91
97
111
125
116
115
111
111
108
99
70
39
27
30
31
47
53
52
70
96
120
182
203
218
233
209
125
15
-17
-15
-12
3
13
27
80
101
120
120
106
111
125
129
143
123
119
105
111
119
125
116
106
102
105
108
123
107
98
89
100
102
105
106
103
92
92
98
104
107
109
103
114
104
97
106
99
109
117
109
108
92
90
87
105
84
82
82
79
83
80
84
74
80
86
101
112
111
135
145
159
135
139
122
101
105
72
73
75
96
105
122
145
168
179
163
103
54
-19
-75
-84
-67
-43
-6
19
35
36
51
68
82
97
104
113
116
140
142
158
162
153
147
139
148
165
175
189
186
211
219
208
167
138
93
42
-4
-20
-24
0
-4
24
36
78
113
129
142
139
135
133
146
151
157
154
138
124
114
116
132
134
115
98
80
93
109
127
142
162
197
247
293
321
302
192
72
-7
-68
-160
-248
-293
-271
-242
-189
-106
-37
53
118
188
206
207
188
200
188
168
160
176
180
176
183
173
141
108
66
72
76
76
78
98
107
129
147
165
182
202
190
140
72
44
3
-21
-17
-15
-12
23
31
62
90
114
128
153
147
170
185
195
175
171
177
171
138
99
61
57
43
67
82
123
165
218
271
302
299
297
240
130
14
-73
-147
-203
-215
-185
-130
-68
-12
45
82
110
134
145
161
160
158
168
173
183
209
222
255
254
247
241
218
171
115
29
-37
-101
-159
-183
-177
-140
-87
-36
14
66
115
169
188
213
210
217
173
135
89
79
85
90
103
108
125
147
139
145
143
144
143
130
138
147
126
112
83
57
52
59
65
71
67
61
70
66
75
60
64
86
94
120
130
146
167
184
217
235
243
236
218
165
108
8
-63
-132
-162
-147
-96
-52
-3
45
80
110
117
132
140
167
158
152
142
153
145
160
154
152
137
131
122
132
133
135
127
117
107
103
117
131
120
99
79
54
43
44
52
63
65
97
111
123
119
107
100
89
89
93
108
119
116
121
114
109
122
138
145
142
133
124
121
115
138
129
138
105
78
55
48
52
44
65
83
106
136
142
118
110
114
135
180
212
235
222
190
150
107
14
-89
-134
-111
-42
34
89
94
57
32
18
7
-6
-35
-63
-76
-46
-48
-58
-23
51
103
165
194
212
201
196
165
129
102
117
134
168
163
114
61
38
19
44
45
63
84
108
166
221
265
297
297
207
127
67
31
21
36
65
90
119
152
173
168
151
144
110
80
32
-7
-29
-15
9
34
42
68
99
136
173
223
267
245
160
87
47
29
36
48
70
69
84
109
125
140
145
137
123
118
109
104
84
59
43
49
67
57
4
-54
-86
-122
-154
-153
-110
-52
1
53
86
106
123
144
151
151
157
135
152
165
165
156
141
137
155
151
152
147
132
128
132
132
128
130
126
103
109
116
113
108
107
110
100
106
104
102
112
115
97
95
99
96
94
102
103
89
92
86
82
98
94
100
90
89
100
111
112
113
113
95
92
93
93
93
100
94
95
86
111
111
116
114
103
116
114
115
128
106
81
70
63
47
46
40
58
53
73
84
92
96
112
119
108
106
114
129
117
119
109
112
118
112
111
106
98
88
90
100
95
99
93
89
85
99
105
115
112
95
96
100
108
116
93
85
87
86
93
92
103
89
77
85
88
97
97
94
93
86
89
94
111
100
96
77
89
92
104
110
99
73
80
85
92
95
99
91
91
86
100
101
116
111
109
98
93
95
107
112
107
71
75
79
100
105
85
76
81
94
101
109
86
91
76
82
93
93
96
84
81
82
94
94
102
94
93
77
92
92
92
95
95
90
87
99
100
95
93
92
88
89
90
93
99
87
92
83
97
95
101
95
88
93
89
98
105
90
112
95
93
81
103
107
106
108
100
94
90
102
97
96
89
101
98
104
109
104
93
103
107
100
119
102
104
82
89
94
97
96
87
77
80
83
96
82
68
62
85
84
86
82
72
73
76
85
87
97
96
88
75
83
89
99
103
103
85
85
87
98
107
97
88
84
98
105
99
99
98
96
105
102
108
104
101
89
91
91
98
99
93
77
77
87
103
111
97
77
63
86
109
122
118
84
71
87
107
119
107
94
73
81
89
100
99
99
98
86
89
91
104
108
91
84
88
97
104
94
91
75
81
77
106
115
104
82
80
88
114
115
107
102
81
79
93
98
102
104
91
74
77
90
100
110
94
86
68
81
98
105
102
96
69
73
88
95
106
99
86
86
97
100
108
95
93
89
84
94
104
99
92
86
83
78
93
93
89
96
85
97
94
99
112
111
115
83
92
102
109
105
100
96
91
99
107
100
105
101
89
94
95
99
107
102
100
89
90
97
99
93
94
83
95
100
108
91
82
89
95
109
99
89
85
97
97
102
94
91
88
98
90
101
105
111
103
88
89
90
107
110
95
83
78
82
107
98
100
87
78
89
91
93
86
97
91
96
90
93
88
98
111
100
82
93
100
109
108
107
96
97
93
105
100
91
108
99
102
105
99
103
90
99
108
97
104
90
99
106
98
103
97
104
104
110
96
102
98
98
107
113
106
95
99
103
100
104
101
95
99
96
101
90
91
92
94
97
94
96
91
89
86
85
85
93
102
91
85
96
106
95
101
96
101
94
95
93
72
88
97
102
104
91
89
99
102
114
103
98
85
99
93
99
99
95
85
79
80
82
101
102
91
94
84
87
99
108
104
99
94
88
88
101
108
101
98
96
97
95
97
93
101
84
94
92
97
99
97
87
90
94
120
116
94
93
96
105
104
103
100
90
88
96
113
108
107
105
94
103
108
106
98
102
96
102
104
111
101
90
100
100
101
92
110
95
101
93
92
102
92
97
99
92
85
98
103
106
92
89
99
101
116
101
96
100
97
99
103
95
104
94
86
88
108
93
90
85
91
89
94
109
100
96
86
96
104
113
121
118
87
88
86
110
113
115
84
82
81
93
107
110
101
98
81
98
105
111
114
96
94
95
113
125
108
93
78
86
96
102
107
98
84
80
103
109
109
109
101
88
100
109
111
99
95
84
94
90
111
92
91
91
87
103
106
102
91
91
88
108
115
104
82
75
95
100
116
103
95
94
92
87
109
97
108
95
82
81
91
100
105
88
90
81
102
116
105
93
87
96
91
98
99
105
100
86
91
97
103
97
102
101
94
106
98
105
99
106
92
91
98
105
105
97
97
94
90
91
101
102
96
89
93
97
98
116
106
102
106
94
106
96
104
92
91
87
83
98
91
101
88
89
85
89
97
95
102
91
95
102
100
105
90
90
88
101
103
101
80
82
99
91
98
89
96
84
79
81
94
109
95
96
78
94
102
105
96
87
83
96
103
105
96
90
88
89
103
105
91
90
87
95
102
98
102
100
96
93
97
92
110
108
102
97
94
99
117
105
97
85
83
94
101
112
110
106
97
95
102
104
104
101
94
94
99
94
94
103
97
91
91
79
97
100
109
97
102
86
85
92
102
106
81
86
70
88
103
102
101
86
83
96
90
100
93
86
75
85
91
91
98
93
74
81
94
112
106
87
85
89
87
97
100
99
104
89
85
89
96
102
94
85
81
87
100
102
113
91
100
103
111
104
96
100
85
92
102
86
81
96
87
94
96
108
102
95
96
92
88
102
98
100
93
90
84
95
98
98
96
79
91
94
97
106
93
79
92
107
105
91
90
77
80
82
86
101
92
88
82
79
87
92
94
93
74
80
92
97
90
81
78
80
89
98
96
87
84
83
91
100
90
92
85
79
91
86
93
88
84
83
85
90
88
102
102
99
95
92
93
104
100
102
93
94
95
100
104
102
87
85
89
96
93
87
87
83
94
98
115
105
100
100
87
86
108
89
93
95
95
92
96
100
96
105
104
97
102
102
110
91
88
88
91
89
98
88
104
89
101
97
101
107
94
99
105
92
94
79
82
103
107
90
91
97
98
103
94
111
90
113
93
90
92
88
101
92
95
94
97
89
99
98
105
107
102
98
95
101
108
95
105
105
94
98
98
98
93
96
92
97
105
105
100
92
115
102
103
97
93
95
89
102
96
88
86
92
83
96
116
95
91
87
92
97
114
113
108
92
96
101
107
120
95
96
87
82
101
105
103
96
89
72
71
87
107
107
101
88
81
94
110
110
92
84
76
99
99
99
87
68
84
89
85
106
100
103
93
98
99
104
113
113
105
96
85
97
102
115
98
86
75
83
100
109
99
86
80
82
88
109
123
97
96
81
87
109
115
109
99
99
90
99
109
101
93
80
83
90
109
105
91
98
85
103
101
110
102
102
83
92
105
116
105
87
96
93
109
108
97
86
93
109
106
96
92
81
94
97
94
89
89
96
95
92
82
99
93
102
100
84
82
90
92
91
93
84
101
105
97
96
86
90
92
91
97
93
98
106
86
80
88
97
94
102
97
108
97
87
89
93
104
108
111
99
96
89
96
104
108
106
104
90
90
104
98
95
94
86
105
109
98
98
90
89
96
99
92
107
109
87
100
80
105
100
110
102
100
91
93
109
109
115
97
95
98
110
101
91
94
92
84
105
90
79
87
91
98
89
87
87
105
102
105
96
92
105
104
103
96
87
88
87
95
95
94
98
90
110
92
100
109
100
101
96
95
97
114
111
101
96
85
101
97
109
96
89
88
88
106
106
108
95
103
101
97
113
107
104
101
88
88
94
94
100
110
104
108
124
131
123
116
107
91
86
77
83
94
90
90
85
96
101
118
111
92
104
104
97
91
101
101
89
94
99
92
94
76
95
86
101
97
100
86
98
110
92
97
97
100
84
98
95
90
102
90
100
94
94
101
92
93
98
92
94
99
103
114
95
91
99
90
111
106
97
95
88
88
100
115
118
98
93
89
106
112
113
107
89
95
101
111
105
98
102
100
104
104
122
118
107
99
102
105
110
112
98
96
84
89
98
108
108
106
92
98
111
108
116
99
100
90
87
99
108
97
106
93
72
84
106
111
96
91
82
92
107
93
101
96
96
90
103
100
105
95
94
105
97
101
110
118
113
100
107
98
98
92
101
96
88
93
87
90
85
94
93
91
103
106
112
103
100
98
112
113
112
105
101
109
109
122
110
108
104
100
110
123
124
113
85
90
87
106
108
101
110
97
94
101
115
126
119
117
98
102
113
120
118
96
102
92
98
95
103
104
104
96
90
101
93
105
101
99
99
101
90
110
111
106
107
85
111
113
104
106
92
97
100
108
112
99
110
89
95
99
102
105
106
107
85
96
104
109
115
119
118
96
84
94
115
118
112
95
88
95
94
97
96
93
99
102
98
97
109
99
112
97
96
108
103
101
97
98
96
96
109
99
108
95
100
91
96
97
107
103
108
89
95
85
91
101
110
112
93
94
98
107
111
108
100
94
96
101
98
98
107
86
90
97
110
98
95
101
90
92
113
111
100
93
100
100
117
107
96
95
97
104
104
106
83
95
94
90
92
87
98
95
91
82
92
99
107
115
115
104
109
107
118
112
109
107
101
100
120
112
107
90
90
93
90
89
102
105
106
93
102
100
107
99
119
105
93
92
99
112
109
106
101
112
109
101
112
100
101
98
107
92
96
101
98
107
96
93
99
107
103
94
93
103
96
108
88
106
94
90
96
108
111
104
102
112
108
112
126
112
103
93
83
89
85
82
89
73
72
94
97
120
100
107
110
113
107
108
97
106
97
94
76
89
85
72
79
66
96
101
114
109
105
103
100
97
97
102
96
85
77
82
84
96
109
109
121
112
125
124
117
126
118
110
98
95
89
77
84
83
82
76
84
94
95
94
100
97
109
117
114
122
107
109
113
90
106
89
103
99
117
110
106
90
74
75
78
80
82
82
94
92
106
85
99
95
106
102
108
113
110
100
109
96
95
97
97
89
97
94
90
83
89
95
96
99
88
88
88
99
101
95
101
97
99
101
102
99
109
104
95
98
109
117
94
100
92
97
96
106
96
86
89
87
106
104
113
103
82
95
98
110
119
117
95
85
87
94
117
104
98
77
72
93
101
114
97
99
88
96
105
111
109
98
94
87
104
113
113
102
92
94
95
106
102
107
107
95
79
85
98
106
94
82
91
86
95
96
103
93
90
92
95
101
103
98
99
93
96
94
95
105
114
101
84
81
84
94
95
109
90
86
77
78
90
103
115
105
84
83
91
98
105
83
97
96
86
90
97
105
91
93
87
90
109
99
99
85
93
100
95
113
102
98
86
92
108
115
116
93
103
94
96
105
108
107
102
104
97
108
109
106
107
95
89
90
100
92
103
96
90
104
83
90
98
105
99
92
88
86
91
98
91
86
88
83
89
101
105
95
89
85
99
106
105
95
96
87
97
92
101
98
107
100
91
103
107
110
109
101
90
90
94
113
117
105
91
84
97
97
107
110
91
83
91
105
100
114
108
94
94
84
111
109
113
97
93
92
111
115
113
103
99
99
106
119
123
102
98
90
95
109
108
99
94
91
89
101
114
108
107
111
91
95
104
123
104
107
90
98
104
110
102
90
78
82
87
105
120
98
100
84
81
96
104
95
90
92
68
80
97
99
111
89
84
96
104
122
120
111
95
100
111
105
102
103
104
82
79
81
89
107
112
89
89
88
100
118
122
109
93
87
107
103
119
116
100
98
86
90
97
115
104
106
93
85
108
109
110
102
97
88
85
98
96
101
100
94
84
98
116
123
119
111
99
100
100
116
99
100
87
74
86
94
100
90
93
104
107
106
98
101
106
103
106
107
99
106
90
103
101
95
106
93
100
95
107
110
98
99
100
98
107
93
103
104
110
110
96
97
88
95
102
124
104
101
93
96
114
120
115
106
95
93
95
101
121
104
105
94
83
99
119
120
111
95
106
104
122
123
99
94
91
101
98
115
112
111
91
89
101
120
116
115
105
91
101
104
109
99
92
84
86
96
91
95
100
110
91
100
93
108
108
116
98
92
96
108
116
111
98
89
78
82
92
99
103
100
94
92
99
109
104
95
105
103
106
110
103
101
93
102
93
100
97
109
109
90
92
102
98
115
109
105
104
98
111
102
96
95
103
103
108
117
94
95
100
108
106
94
98
100
103
106
94
88
99
114
103
109
105
106
108
114
99
104
112
95
104
100
100
102
79
86
95
97
107
106
82
90
100
106
102
104
104
92
97
103
96
93
93
100
86
89
86
92
95
102
101
91
93
92
99
119
112
111
104
116
109
108
114
110
114
101
107
84
99
103
109
105
106
90
94
122
125
94
90
87
104
114
117
111
93
97
104
94
103
102
109
96
101
102
111
103
108
108
98
99
87
101
112
115
112
100
88
96
112
114
106
92
94
105
104
113
107
105
99
100
110
111
108
102
103
109
108
106
96
99
92
97
98
99
98
104
98
97
107
107
111
97
98
100
101
107
107
105
93
90
96
101
96
111
96
96
87
95
96
95
97
81
92
94
94
87
92
81
99
101
104
102
99
110
102
101
96
105
107
108
109
99
96
95
95
95
90
87
99
96
83
97
96
103
102
101
92
100
105
97
100
98
103
93
87
90
85
96
91
98
87
91
84
98
99
100
97
91
96
92
102
99
95
92
99
93
87
98
94
97
95
91
85
101
108
98
105
91
96
99
98
106
108
97
97
76
88
99
100
93
96
83
89
97
105
103
90
91
93
111
106
98
91
81
105
103
110
98
96
101
94
97
96
91
96
91
101
96
110
106
105
104
104
103
102
113
105
101
100
95
91
89
102
104
104
91
99
85
95
103
118
104
96
89
92
103
119
105
89
74
78
96
99
106
108
72
79
83
104
107
110
94
88
88
98
114
108
96
78
89
88
83
102
94
86
75
75
80
90
101
96
83
88
85
85
99
97
83
85
87
95
99
97
103
86
86
89
87
98
98
94
84
85
96
105
108
94
93
86
100
91
106
106
96
89
90
83
101
103
108
101
84
75
92
91
103
98
85
83
87
105
105
106
98
93
101
103
105
111
107
103
105
93
106
109
99
98
93
98
96
100
94
92
91
93
98
100
93
91
84
88
90
104
108
92
82
90
90
97
97
96
88
92
85
77
91
91
80
78
90
80
84
84
92
99
105
94
92
88
96
104
96
102
82
89
90
89
87
98
104
95
87
88
96
88
93
94
91
92
94
100
96
104
101
93
108
101
109
96
103
96
101
106
97
102
87
84
93
93
102
105
96
83
87
87
95
95
93
95
86
104
89
97
102
111
89
99
91
92
84
90
97
94
87
82
84
98
105
95
87
77
79
99
98
99
90
83
86
94
95
82
98
76
83
81
85
96
83
86
70
78
80
88
106
102
84
76
75
106
108
104
85
90
99
88
100
96
103
94
91
88
90
97
97
96
81
86
89
101
104
86
89
80
96
90
102
98
92
81
78
88
93
95
97
101
97
100
93
101
91
99
75
83
92
93
96
86
81
81
88
88
100
97
89
85
82
88
90
105
98
87
93
88
98
96
92
98
97
89
82
96
98
100
94
86
89
93
99
102
89
83
86
83
97
93
93
91
78
89
87
102
103
106
99
101
89
96
98
99
103
95
96
92
95
97
88
98
83
86
86
97
115
101
106
93
82
90
106
102
97
89
80
81
97
110
114
86
85
57
77
101
103
100
90
90
85
92
99
113
108
84
80
84
100
103
100
83
75
75
87
89
103
88
72
64
85
80
100
89
88
83
68
68
81
102
96
96
86
80
100
100
92
97
88
93
98
100
95
81
91
86
100
84
82
89
81
95
99
109
96
96
90
99
98
102
96
99
102
96
100
99
113
111
92
86
101
104
104
100
91
88
91
98
104
101
83
78
96
99
94
97
103
80
91
98
100
85
89
94
97
93
82
95
96
99
83
91
85
101
91
86
80
67
69
88
86
84
81
81
84
87
99
101
79
80
85
98
90
90
90
78
91
88
100
93
86
88
81
98
94
101
95
98
91
85
91
98
92
98
94
87
81
99
99
108
93
89
101
103
100
104
109
104
98
99
111
102
93
100
98
100
108
102
100
105
105
105
97
102
103
108
93
97
88
82
96
92
98
93
96
88
95
90
92
99
91
96
100
100
100
107
103
94
83
83
104
99
97
85
85
93
105
95
91
83
99
95
97
92
87
91
84
87
82
97
98
100
86
77
89
93
102
102
92
81
88
97
111
115
97
98
101
95
105
105
117
95
91
93
90
103
103
107
100
91
86
89
103
90
102
97
90
96
102
101
95
106
96
103
109
113
94
91
82
101
101
88
100
95
100
92
85
94
93
98
96
99
93
98
97
106
101
91
97
95
96
90
94
94
91
101
91
88
95
100
96
101
87
78
90
93
103
87
88
86
96
95
96
97
92
88
89
103
96
90
93
86
85
105
93
89
96
92
90
82
90
91
107
102
89
88
102
96
100
106
87
95
101
104
108
90
97
92
87
92
98
95
96
97
95
109
90
96
101
91
99
84
88
92
106
97
84
86
94
105
111
104
97
93
99
100
94
103
100
94
95
86
96
93
90
99
101
86
84
104
96
103
95
84
85
94
100
88
79
84
99
88
89
99
90
99
102
107
98
102
101
99
96
102
88
81
98
106
95
85
101
97
104
110
104
94
95
106
104
107
107
101
111
116
113
114
95
101
107
112
105
101
105
105
106
105
97
89
109
110
95
90
89
91
89
99
88
97
107
98
96
96
108
110
102
95
93
97
104
106
102
107
102
89
94
111
105
112
103
103
96
95
89
105
114
103
94
99
96
103
123
104
95
97
100
111
103
114
107
98
94
95
107
107
108
86
90
77
87
98
102
111
91
90
83
96
113
111
100
91
94
94
98
102
92
88
70
83
96
89
102
90
79
84
94
101
108
103
93
93
90
104
104
115
110
91
92
92
103
108
90
97
94
92
85
100
103
91
104
92
98
98
105
106
93
98
101
102
90
106
106
91
90
81
90
86
95
104
87
87
75
87
88
108
95
106
90
93
95
97
98
94
105
108
100
92
95
95
91
94
97
90
92
106
88
91
93
99
96
92
99
87
85
96
111
97
92
82
84
87
92
92
95
96
94
90
92
93
96
82
91
89
89
88
89
87
87
96
108
103
100
95
97
100
102
108
101
106
103
105
101
105
101
107
111
109
110
107
101
108
119
115
112
99
91
104
95
106
111
101
97
93
109
99
106
102
90
96
101
96
94
91
90
95
103
104
103
93
101
91
101
85
96
100
84
84
79
88
85
97
87
96
86
96
86
88
90
83
86
95
85
89
95
95
97
90
86
84
92
104
100
83
86
82
92
98
109
92
92
91
120
113
109
107
97
112
99
102
93
102
106
101
98
89
104
112
116
106
97
92
96
113
112
107
92
91
98
93
120
112
101
97
85
92
102
112
103
91
76
80
91
99
99
86
84
81
90
111
110
107
90
88
84
98
115
115
108
84
80
93
107
116
102
79
70
70
86
87
93
78
75
76
88
108
90
103
89
85
91
97
111
103
96
86
82
87
92
98
102
96
85
88
88
105
100
92
77
93
89
106
102
105
91
87
90
102
97
114
103
99
100
94
87
108
102
96
79
82
91
87
92
82
100
93
87
88
87
106
104
110
87
90
96
108
108
112
102
85
96
95
96
112
94
89
83
87
97
93
98
86
77
75
84
103
100
89
92
78
83
96
111
111
89
97
92
101
100
108
102
94
93
78
86
92
104
84
74
79
80
95
89
92
93
93
94
105
103
108
118
93
101
91
96
100
94
91
90
94
85
99
111
95
93
93
99
89
89
96
95
99
94
100
93
97
100
92
95
94
109
104
103
94
94
98
102
100
82
104
95
99
81
85
93
97
99
94
95
82
102
106
99
102
85
81
96
101
104
93
87
76
82
90
90
83
81
80
85
82
100
93
90
89
92
95
86
86
95
91
96
89
82
88
86
92
90
82
90
94
100
81
82
85
99
81
87
86
91
96
115
107
92
97
108
97
115
101
99
94
104
100
110
91
86
93
101
104
109
94
89
115
103
104
110
116
109
89
106
110
114
99
93
93
85
105
93
72
73
77
90
82
85
88
70
93
97
100
97
82
88
85
97
94
90
92
96
95
80
86
89
87
94
80
82
93
95
98
84
82
89
98
104
112
113
105
98
98
103
111
113
97
101
104
113
109
103
98
102
97
97
103
98
95
92
83
95
104
108
114
91
106
99
113
116
120
109
104
90
96
108
92
99
99
89
100
99
102
90
101
89
88
94
96
95
91
98
90
97
101
101
103
92
111
97
93
93
92
92
88
103
94
78
87
86
90
95
94
87
76
87
99
84
87
78
87
84
91
81
94
92
81
97
90
95
96
102
100
103
103
106
107
99
100
105
100
107
109
107
84
91
101
105
102
90
91
103
103
114
105
99
86
100
109
107
106
85
92
88
94
106
110
88
83
91
90
95
95
92
101
107
98
93
85
95
101
102
99
89
77
100
87
94
95
84
81
79
101
101
102
90
79
86
98
93
107
107
93
79
89
108
108
110
94
78
82
90
106
100
86
78
74
78
83
88
97
85
84
84
96
109
109
96
89
86
105
105
106
108
101
94
93
88
104
98
93
90
93
90
92
88
107
103
96
92
93
99
106
110
95
92
100
100
100
95
97
84
101
90
100
96
95
98
86
102
88
96
110
98
109
90
95
84
100
102
96
89
82
97
92
87
86
94
94
82
86
90
91
98
86
83
88
96
92
101
83
85
90
84
91
94
82
91
88
89
94
92
99
100
92
86
82
93
90
97
92
84
76
85
79
96
89
91
96
100
93
99
114
109
103
90
99
99
99
111
97
88
86
90
97
97
92
89
87
85
98
99
92
96
99
90
104
102
118
109
109
89
85
103
105
109
97
92
84
84
91
100
102
93
93
89
103
110
101
108
91
102
107
88
97
92
103
95
90
103
103
97
99
86
82
90
85
89
85
82
81
76
93
95
101
88
91
82
91
108
116
107
89
94
95
101
101
101
92
85
76
85
95
86
88
80
77
83
78
90
95
106
101
93
96
112
105
115
109
91
95
102
105
107
88
77
77
79
81
90
94
94
81
80
88
94
93
88
84
82
79
90
106
95
103
82
83
78
93
91
95
85
90
76
88
91
91
100
99
96
86
92
87
89
86
98
103
92
85
83
90
91
101
103
93
87
87
95
98
100
95
85
91
90
85
90
99
87
84
86
81
96
92
86
92
81
80
105
93
99
77
80
78
89
86
97
90
93
88
85
93
99
99
98
87
87
96
94
85
91
103
100
99
85
85
86
102
103
97
86
83
82
85
97
100
95
91
87
100
89
84
88
101
96
94
91
80
81
93
84
94
83
89
91
89
99
97
97
85
96
90
97
91
93
92
92
82
98
95
101
108
87
70
73
99
108
95
91
82
72
82
93
105
97
80
76
74
93
104
90
85
71
78
91
89
96
98
88
68
70
83
98
102
85
82
82
82
88
99
101
97
95
96
95
95
93
98
106
105
100
84
87
97
104
93
87
86
87
95
97
91
90
85
90
82
91
97
101
103
84
82
95
97
98
101
89
92
73
73
100
94
99
75
83
87
97
100
86
78
78
89
98
101
107
95
79
79
86
110
104
97
87
76
79
76
88
85
76
71
73
73
88
88
86
79
74
85
85
93
94
82
89
87
80
93
86
87
91
70
85
79
85
97
94
87
84
77
76
98
107
98
85
88
85
99
106
104
90
92
85
92
84
94
92
87
71
82
86
87
93
93
89
84
88
86
90
88
76
92
89
93
85
80
83
77
93
86
91
89
94
83
85
83
80
78
77
88
77
86
88
89
86
86
87
84
96
92
91
87
88
74
93
92
77
78
73
81
80
76
71
82
82
78
65
68
76
87
81
83
80
83
88
84
80
87
97
85
87
89
78
85
84
82
79
76
82
89
89
87
79
77
94
93
85
77
75
85
87
92
84
73
75
89
89
81
84
88
87
82
77
90
80
88
88
95
92
71
73
84
90
89
81
79
73
91
79
73
64
72
94
83
87
85
73
84
70
69
81
94
80
95
81
79
76
87
91
92
82
80
72
83
79
86
75
72
68
70
79
86
84
81
86
77
79
106
90
89
75
81
81
82
87
79
77
86
70
88
81
77
71
83
81
101
91
85
81
87
83
83
89
86
89
83
83
79
85
83
87
79
93
85
90
86
82
75
85
90
90
87
87
83
83
80
84
91
89
83
81
85
82
82
81
88
82
78
75
74
89
85
80
87
65
68
73
83
85
88
81
64
74
87
84
89
77
72
75
82
84
91
78
79
67
71
81
86
90
74
75
79
70
84
92
77
67
73
67
78
88
96
81
63
66
92
98
111
92
82
73
76
89
102
85
91
66
69
72
99
96
92
84
74
70
73
93
90
84
77
68
71
94
95
92
73
77
70
83
91
92
76
82
82
72
83
79
84
80
78
81
76
78
85
75
76
69
81
66
77
79
73
68
69
71
75
70
83
83
75
77
74
87
87
91
77
77
75
83
89
97
78
74
78
87
99
84
71
79
90
93
95
83
83
82
92
89
84
77
83
86
89
77
74
79
89
85
83
87
88
78
79
86
84
87
90
90
82
82
81
92
96
84
85
77
91
81
86
84
98
73
76
85
84
94
93
78
72
76
83
85
92
97
72
79
71
85
90
93
94
79
72
63
84
85
94
81
75
76
88
80
75
85
81
73
75
80
83
93
93
81
74
81
90
96
89
75
80
80
80
87
95
88
86
82
92
81
86
81
79
91
99
78
85
91
99
97
77
79
85
76
93
87
86
94
90
84
82
95
91
84
88
88
77
78
88
82
86
85
73
78
77
86
87
79
87
81
83
78
93
94
87
91
75
81
89
93
91
84
95
78
88
73
74
83
83
86
75
92
66
79
79
85
89
91
75
86
76
74
78
79
90
87
85
75
68
74
83
86
84
85
87
83
76
83
89
83
81
78
86
81
88
85
86
94
74
76
73
84
90
78
80
68
88
85
84
83
86
91
96
96
93
87
90
94
92
88
89
91
85
82
86
86
96
83
87
79
72
108
90
86
81
83
89
86
99
88
75
81
83
84
89
92
73
73
80
85
85
95
83
80
89
95
91
91
73
75
82
92
88
84
78
71
71
76
80
86
88
83
73
79
80
91
94
98
85
87
78
85
88
90
88
81
85
87
83
92
89
85
72
81
91
95
102
85
85
84
89
87
84
77
97
80
83
83
78
86
87
93
86
93
85
91
93
81
94
85
88
92
78
99
94
80
83
80
74
86
81
86
87
67
56
73
80
96
77
72
79
82
89
87
78
83
85
78
84
87
69
86
84
71
65
80
93
80
90
79
80
75
75
92
89
83
63
63
69
76
81
79
83
87
71
78
82
80
82
76
79
75
78
80
78
88
78
74
69
75
92
88
89
73
66
77
80
96
74
82
69
67
77
87
82
78
81
82
83
93
87
88
89
72
79
78
78
85
74
91
77
79
83
87
76
63
83
92
107
83
85
81
77
82
87
95
84
96
77
84
82
86
80
79
82
72
78
91
87
87
83
76
98
88
100
94
74
75
84
91
87
80
75
64
68
72
87
87
85
78
66
80
85
91
85
88
86
77
87
89
82
80
68
79
72
79
92
88
89
78
82
82
102
96
91
92
86
74
87
88
92
76
81
89
84
99
96
90
86
85
77
82
92
88
91
85
81
81
83
86
81
83
89
84
77
85
86
87
78
68
80
85
81
85
77
76
86
75
79
86
92
83
72
68
74
81
83
79
82
84
75
78
84
82
74
71
73
79
92
84
70
82
89
80
84
74
84
84
83
76
77
88
85
84
85
83
75
82
82
77
92
84
79
80
76
90
90
101
83
80
73
83
85
101
94
76
70
75
83
92
92
72
71
66
68
82
91
93
76
64
82
84
102
107
90
75
77
87
101
109
100
92
77
85
86
97
100
85
65
71
86
91
88
85
76
80
84
95
103
103
87
76
78
91
96
90
78
67
72
71
93
88
99
75
68
68
84
84
94
79
75
78
86
87
81
78
73
79
79
90
89
76
79
88
83
96
94
86
80
75
75
80
99
96
87
86
80
83
97
90
86
69
73
80
89
83
78
84
78
82
93
85
77
70
93
90
79
84
74
84
82
82
85
81
76
79
89
85
73
79
84
91
87
90
93
80
77
79
81
94
92
82
78
72
71
85
87
77
69
59
80
77
88
89
82
68
82
92
89
94
77
87
81
76
79
91
88
78
68
70
75
85
86
81
76
72
79
91
85
91
84
78
88
91
76
88
83
84
77
87
81
72
71
87
81
84
79
85
73
80
73
77
80
93
99
91
88
67
70
89
86
89
104
89
84
76
82
88
89
103
88
71
73
75
83
85
82
83
76
78
80
88
91
85
89
71
86
87
98
85
81
68
65
74
80
81
88
74
72
60
66
78
87
76
77
75
73
92
85
80
81
80
84
84
89
88
86
80
80
67
77
78
83
76
76
71
75
91
84
95
79
79
61
79
92
88
92
84
88
98
96
101
87
85
78
88
99
83
83
77
80
88
82
81
91
91
82
78
86
90
86
80
83
76
75
88
89
86
73
81
83
74
86
70
77
79
73
78
69
74
74
77
88
81
70
75
77
84
82
71
79
77
81
76
80
77
79
89
73
72
69
76
81
84
77
70
85
78
83
74
84
87
93
94
78
69
80
80
96
90
81
67
60
83
97
90
90
82
87
63
94
100
100
81
80
93
95
108
98
83
73
83
80
97
85
88
69
78
76
87
96
94
76
81
85
76
97
78
84
81
72
78
86
95
104
83
74
74
97
91
97
79
75
74
81
90
91
81
78
68
79
82
85
78
83
69
73
82
85
81
84
75
67
78
80
90
84
90
71
79
76
97
79
87
77
74
65
75
80
73
76
74
76
94
86
80
80
79
88
78
93
80
79
83
83
80
82
92
91
87
99
96
91
83
90
82
87
89
91
87
92
82
78
76
86
90
86
94
87
84
82
84
83
77
83
87
89
86
86
81
74
70
84
72
74
75
89
79
85
71
67
80
88
84
75
76
82
89
94
90
86
83
75
85
80
73
75
86
70
83
90
75
72
78
84
79
84
88
91
87
83
83
88
93
91
90
92
84
92
77
79
91
95
81
78
74
78
79
95
82
92
75
86
94
103
91
84
96
85
93
81
95
84
80
88
86
89
88
92
98
93
80
81
86
105
99
84
88
77
86
91
95
94
94
76
79
80
91
87
84
76
78
65
80
87
85
90
76
83
93
90
92
93
67
65
72
64
78
87
85
73
62
79
85
109
98
80
75
85
86
102
98
95
75
72
73
83
93
87
85
89
89
90
99
89
95
95
95
83
83
84
89
94
91
95
79
95
83
96
94
89
75
77
87
82
87
81
74
76
89
81
96
81
83
90
85
86
78
89
91
81
85
93
83
99
90
101
93
91
88
85
82
94
95
89
93
79
72
63
71
89
81
71
83
78
90
94
93
77
83
89
90
91
95
85
92
84
87
85
85
83
74
83
76
71
73
76
79
73
66
76
73
91
89
76
77
81
88
83
94
85
95
85
87
81
82
84
80
66
65
79
88
87
88
76
56
75
92
111
95
85
73
83
91
97
87
78
73
84
95
99
94
85
76
81
82
89
94
87
85
72
76
82
83
95
85
85
83
90
94
81
80
81
76
70
73
79
72
86
75
86
71
81
86
104
80
77
66
81
87
93
78
84
74
75
71
86
89
79
88
89
84
97
93
91
89
80
81
83
94
85
87
82
70
88
87
90
93
92
88
85
77
84
82
87
87
82
80
84
79
87
91
73
71
81
70
81
79
86
73
87
103
116
114
88
82
74
67
82
80
74
78
62
69
63
77
77
74
79
80
79
73
81
79
80
89
73
69
69
91
90
79
67
57
75
87
85
77
81
88
82
95
81
87
88
102
101
92
84
68
70
87
81
71
53
68
86
97
91
88
72
74
90
93
93
84
88
70
72
83
95
84
99
98
77
71
80
94
103
103
76
70
89
105
116
81
78
70
86
103
101
93
84
87
92
91
84
90
97
95
99
90
94
95
87
90
79
72
81
94
88
92
85
77
79
94
85
88
75
84
80
99
86
83
89
74
81
77
87
87
73
82
81
81
78
88
76
80
79
83
79
73
64
67
65
68
79
74
75
69
85
91
102
85
78
75
78
78
83
81
87
76
68
74
84
86
76
75
85
83
85
87
82
91
79
73
87
96
91
92
71
69
76
89
87
89
70
73
66
74
79
86
84
77
80
85
96
101
95
86
69
84
79
91
81
82
59
62
70
87
88
90
75
67
85
93
91
88
82
80
89
84
73
64
80
81
73
64
67
76
72
89
82
71
64
76
69
75
69
75
77
80
75
65
72
79
91
83
78
65
72
78
80
86
72
83
84
88
90
88
80
77
82
88
84
76
74
87
82
87
81
81
85
88
86
79
80
85
94
88
90
84
96
101
112
115
105
104
98
108
103
99
97
82
78
75
75
67
64
71
75
73
56
63
70
73
80
68
74
75
89
87
84
75
82
88
75
92
97
72
69
67
84
85
88
90
91
94
101
99
114
104
94
82
83
86
86
78
65
79
52
69
67
82
87
87
85
83
84
91
99
87
95
80
76
71
69
61
62
51
62
79
88
103
102
112
117
104
90
66
54
51
69
68
70
69
66
60
42
46
50
58
86
101
109
119
108
107
88
104
106
104
106
103
112
112
111
109
95
93
86
80
72
81
70
74
70
90
105
107
105
78
62
64
64
59
50
40
48
39
48
67
81
75
76
86
85
88
104
82
81
74
68
70
80
74
70
70
70
87
83
70
74
63
65
74
88
98
101
90
80
72
85
90
92
85
80
75
94
109
92
91
83
88
85
91
95
85
76
77
78
79
83
82
80
78
65
79
96
101
97
81
74
75
75
89
73
84
79
82
88
89
83
79
85
92
100
87
86
79
74
74
86
79
69
72
84
82
91
87
75
83
80
85
87
90
77
73
61
51
75
86
90
86
78
71
80
96
100
94
91
69
73
88
96
108
92
74
69
91
105
114
108
90
78
81
99
117
104
92
89
87
91
93
100
84
77
93
89
99
103
101
77
81
81
85
85
74
71
66
67
79
96
90
85
87
85
84
85
91
88
98
75
88
81
84
92
98
103
92
86
85
89
88
90
84
80
83
71
90
79
92
99
77
86
80
85
94
101
107
107
92
86
82
103
97
88
75
65
66
87
97
94
75
64
66
92
105
100
88
80
68
73
85
83
91
84
82
60
84
80
90
88
83
74
71
84
87
99
91
83
89
108
106
115
119
116
119
115
122
115
99
84
75
73
74
79
81
73
76
72
78
78
87
78
80
71
81
70
67
61
77
77
85
82
69
81
93
99
102
99
102
97
97
94
80
84
83
81
73
83
84
86
93
97
90
67
85
94
100
98
83
62
78
77
92
84
76
86
81
89
86
89
95
84
77
78
81
91
100
92
80
71
69
77
93
100
83
79
76
75
93
96
84
79
87
96
98
106
106
95
93
88
93
99
102
88
79
78
89
97
99
81
76
79
82
90
100
92
97
61
59
59
76
83
85
77
81
88
93
103
94
79
79
86
87
99
89
90
82
96
85
80
90
93
92
73
79
77
83
97
94
86
76
83
91
82
89
85
88
85
83
87
78
96
101
99
83
77
84
76
109
109
104
98
86
99
108
119
103
97
69
58
55
55
75
91
92
103
113
99
102
103
92
94
77
83
90
92
90
100
90
98
103
103
111
101
107
92
97
84
76
78
73
83
68
68
91
105
107
98
105
100
93
85
95
88
103
78
71
80
92
88
103
96
99
93
88
109
95
92
84
88
79
95
93
95
80
83
78
70
77
86
91
100
96
82
75
81
61
70
78
71
75
75
72
74
87
94
95
95
95
101
101
102
105
109
82
84
78
78
94
89
93
97
87
95
90
105
106
129
114
97
117
121
152
164
156
164
157
154
159
134
86
25
-43
-41
-31
-34
-9
-28
-24
-15
-26
8
33
59
68
72
92
96
135
148
165
173
154
144
150
165
166
157
133
124
119
116
122
120
112
118
126
140
149
158
160
117
55
0
-69
-95
-102
-87
-56
-32
17
39
86
111
118
110
90
74
68
76
89
99
109
117
105
111
112
138
137
134
128
108
121
124
146
164
187
176
144
109
85
98
84
93
73
66
55
55
42
19
37
37
50
78
90
105
94
106
108
113
112
94
95
93
109
91
98
87
94
88
84
81
67
69
65
58
51
57
69
81
80
96
88
89
74
89
96
102
102
88
88
85
76
88
103
97
87
82
76
83
80
89
95
98
97
91
82
128
149
178
140
99
79
74
71
77
77
91
85
67
27
32
52
76
91
89
99
99
73
66
54
62
55
41
44
47
62
68
77
89
96
102
108
112
118
108
114
101
114
117
103
103
92
90
95
105
117
119
113
104
100
121
122
124
106
94
100
102
117
105
81
76
72
70
86
75
54
34
37
54
86
92
69
66
71
104
94
100
116
115
133
112
104
102
101
86
91
90
101
102
122
126
110
77
41
37
45
49
34
38
24
37
45
62
67
83
85
98
115
97
112
105
112
114
117
121
107
96
91
88
98
93
93
83
92
83
84
74
91
81
97
83
82
83
93
86
72
86
72
78
87
90
88
81
92
82
98
105
93
87
78
75
85
94
100
83
83
57
74
82
98
89
86
71
77
88
87
93
88
68
80
77
89
98
79
80
79
75
88
89
95
86
97
87
98
91
87
89
82
93
87
90
101
96
88
78
80
87
95
97
92
84
70
70
53
37
18
-31
-72
-70
-45
-15
42
79
118
157
166
162
160
151
133
133
117
123
121
115
118
125
150
155
126
93
63
48
32
15
14
22
29
42
57
78
97
95
98
92
93
107
112
101
108
96
91
94
89
106
105
91
100
95
104
100
109
110
96
90
93
85
100
113
93
76
77
81
74
85
71
65
41
28
6
-4
17
40
53
67
81
109
124
128
112
97
99
75
75
75
81
82
84
96
99
125
142
158
159
162
178
200
201
184
134
54
24
2
-3
-2
-21
-23
3
27
64
112
125
139
140
147
163
166
162
138
101
96
119
149
165
185
173
109
49
8
-17
-22
-59
-99
-111
-124
-155
-167
-157
-139
-99
-46
17
90
141
142
150
171
184
201
194
190
168
133
138
132
140
155
165
172
163
161
167
167
159
154
149
135
107
103
90
105
108
114
130
138
157
151
136
111
110
71
23
7
-17
-38
-59
-61
-44
-15
14
32
71
75
92
104
106
109
108
116
112
132
130
103
59
34
39
41
33
9
19
56
69
60
16
33
34
46
59
74
74
116
131
148
151
156
145
142
129
127
128
134
131
117
119
115
112
105
109
102
99
98
99
88
78
52
27
2
0
7
12
33
62
68
80
77
79
83
82
84
95
87
79
85
86
90
112
109
120
100
95
83
99
98
103
97
78
87
87
107
104
88
80
85
87
113
116
112
107
103
113
123
123
120
117
122
121
138
126
117
121
123
127
128
131
146
165
160
163
167
158
157
141
90
50
8
-15
-35
-29
-44
-40
-42
-24
-19
-10
11
26
54
93
121
150
160
156
143
126
93
84
91
90
100
103
94
90
78
99
120
136
120
109
101
109
122
127
135
132
120
107
90
75
76
98
98
50
38
13
26
22
51
83
115
147
187
201
191
175
167
124
94
50
11
-23
-36
-50
-59
-40
-25
-19
6
15
35
73
113
136
168
180
183
185
182
183
170
193
193
151
127
71
30
3
2
0
17
44
63
83
86
123
130
106
67
14
-4
-30
-36
5
40
87
113
137
139
128
135
120
136
125
130
111
100
106
103
121
104
129
137
151
172
198
207
206
209
214
225
231
214
185
153
67
0
-64
-127
-165
-187
-171
-160
-150
-138
-99
-59
-7
50
111
165
193
207
196
167
140
89
82
72
78
91
117
140
131
150
165
184
204
216
193
167
132
92
58
23
-19
-38
-22
-6
4
15
18
-15
-39
-57
-41
5
67
124
193
234
277
284
279
255
230
181
114
54
31
37
74
106
157
166
166
168
162
129
107
84
56
17
-2
-22
-20
-9
25
74
115
190
226
259
250
267
258
266
249
181
109
35
-37
-68
-84
-75
-48
-16
9
26
47
81
89
82
68
32
-29
-69
-84
-73
-36
12
69
99
124
128
150
159
198
237
228
207
213
212
208
184
159
138
92
71
71
89
147
155
186
206
215
202
220
228
204
109
-11
-143
-268
-368
-404
-409
-361
-254
-147
-43
64
142
185
212
195
181
177
172
170
179
176
166
149
148
136
144
149
134
146
156
159
173
162
152
142
135
148
137
145
135
128
113
128
122
112
105
98
90
85
89
82
83
76
86
76
67
76
80
76
68
64
69
79
79
84
84
84
80
77
86
81
91
77
67
84
84
86
64
75
77
80
85
76
72
74
84
82
76
78
76
82
87
92
96
78
82
82
89
94
84
84
76
87
93
87
86
78
75
68
79
89
101
93
92
78
85
88
87
78
90
89
88
93
100
102
100
90
80
83
98
99
98
92
90
87
91
109
99
95
82
96
83
96
99
92
84
88
91
94
88
88
76
79
78
85
91
86
84
77
89
99
95
108
87
94
87
100
95
97
97
92
83
76
76
78
95
96
85
80
85
74
78
83
84
95
96
87
88
97
99
80
83
101
98
89
75
80
93
92
99
95
88
88
93
83
75
81
93
88
99
82
80
83
91
96
84
88
76
79
83
88
75
75
80
84
75
67
72
84
84
75
60
77
78
78
73
68
69
81
81
86
86
83
89
83
74
78
86
90
86
78
75
72
76
80
88
90
90
79
84
86
82
89
83
74
82
83
83
91
92
77
91
90
98
94
91
74
81
79
92
85
84
86
91
86
87
91
96
94
79
88
83
88
78
88
71
82
92
84
92
85
85
79
82
83
82
80
73
74
81
81
91
92
80
81
80
77
79
84
77
80
83
86
85
80
61
66
83
81
69
84
76
80
86
86
80
80
82
79
81
89
74
81
83
84
77
75
89
98
87
85
79
94
92
103
88
81
78
85
96
88
72
77
80
90
84
81
85
87
65
81
78
86
89
89
72
78
72
82
98
88
84
72
80
83
83
78
82
71
74
83
67
71
81
80
89
88
87
81
91
96
89
78
72
61
76
89
92
90
75
72
72
93
101
96
74
74
84
72
80
78
80
84
82
78
71
84
78
80
79
79
81
93
91
81
75
72
90
88
106
87
86
69
71
81
101
95
92
90
85
93
76
104
84
82
78
84
89
101
87
85
84
86
93
96
94
95
88
72
77
82
96
96
91
88
80
88
97
105
94
90
85
90
94
97
95
92
95
71
69
80
84
93
91
77
69
72
94
92
100
80
69
71
90
91
91
82
85
68
79
79
87
82
84
83
79
83
85
71
62
77
85
91
87
84
69
74
82
85
89
83
86
67
89
89
92
81
79
75
80
81
89
88
85
87
91
89
98
89
94
105
93
96
89
85
77
79
90
83
87
88
86
86
66
86
86
84
81
83
71
83
76
83
87
90
94
98
92
90
90
98
92
84
95
90
89
79
74
77
78
81
80
86
75
63
69
81
91
90
80
73
77
89
86
97
87
75
84
84
88
92
92
72
81
78
83
90
81
79
76
77
89
93
87
92
84
86
81
90
89
95
90
86
90
90
103
103
97
102
82
78
96
88
82
92
82
92
89
79
85
93
97
96
85
73
79
96
103
89
84
78
80
86
103
93
85
90
74
87
88
100
94
93
90
87
93
82
101
86
84
83
76
82
92
81
91
75
77
78
86
85
89
82
84
88
90
96
87
78
76
88
92
96
82
75
72
79
79
93
95
96
82
88
83
106
107
103
90
84
89
101
96
100
103
84
89
82
95
97
88
76
83
85
92
90
94
76
95
86
89
81
84
90
79
96
88
83
99
102
97
89
91
95
92
105
90
85
76
81
90
91
85
74
81
89
91
90
88
90
96
84
85
84
93
84
86
87
86
95
94
87
82
84
93
86
75
83
84
86
85
95
85
86
95
87
79
91
88
92
89
92
85
84
81
74
91
92
98
95
77
85
81
99
90
96
88
91
92
93
94
98
98
100
89
92
78
87
83
91
91
79
88
106
92
95
89
80
99
95
108
101
88
90
78
97
93
104
90
92
85
99
98
100
94
91
90
87
85
91
100
97
79
80
90
100
84
93
87
86
86
91
87
85
76
92
97
99
94
88
85
98
89
104
96
85
87
91
92
94
92
72
93
81
85
89
87
87
93
84
91
83
90
88
89
94
86
101
97
87
80
80
100
101
101
91
80
93
93
104
107
88
90
95
99
100
105
114
87
83
85
97
88
102
94
79
86
100
105
95
100
97
85
83
91
92
92
97
82
83
91
95
99
95
107
99
104
94
96
97
111
93
86
76
82
89
85
94
84
81
83
93
94
108
95
96
82
86
93
107
108
105
77
76
79
87
108
98
83
61
86
91
109
102
93
84
89
94
103
107
97
87
84
96
92
95
87
83
84
76
86
98
90
96
88
83
87
100
102
93
101
94
97
97
96
95
91
94
87
81
90
96
91
95
84
79
85
84
99
91
104
98
100
87
84
87
97
98
101
100
77
91
82
87
93
79
90
91
91
87
89
88
78
96
92
88
95
94
91
87
81
86
86
98
92
87
101
96
89
91
91
96
95
90
94
89
79
91
91
88
92
74
84
94
104
91
86
86
94
90
87
101
103
99
99
88
75
101
99
94
85
82
83
81
98
93
90
72
75
102
94
98
86
83
93
97
109
98
91
88
93
95
97
94
85
82
88
90
91
84
90
79
91
112
93
97
94
82
102
101
105
87
90
100
84
89
94
80
85
91
90
89
93
81
84
98
94
100
94
97
99
88
76
78
106
94
105
83
73
91
92
101
89
93
85
87
90
100
100
95
95
77
87
92
84
91
89
97
90
90
89
93
94
106
97
93
86
89
88
96
96
97
100
91
93
110
116
108
101
89
99
89
115
104
105
92
83
76
98
97
106
80
83
80
85
98
95
91
81
83
92
100
112
107
96
85
86
98
90
105
95
88
74
79
87
84
100
90
90
80
97
89
90
96
102
100
87
84
83
95
102
97
94
79
89
90
89
96
96
91
79
82
93
105
94
73
91
74
92
109
110
93
94
94
87
98
97
100
83
84
90
100
95
92
80
91
89
95
89
86
93
96
88
95
93
99
98
98
90
101
98
95
100
89
105
100
83
89
93
91
92
86
76
87
82
97
100
84
83
97
103
103
90
85
84
82
102
113
95
88
80
94
93
97
103
101
95
92
85
87
93
87
96
80
84
75
81
95
102
93
88
78
82
108
99
108
82
77
86
89
90
84
82
87
79
77
83
84
96
103
92
98
94
105
91
94
90
99
91
106
95
91
92
67
90
94
102
99
83
89
83
91
83
91
90
98
102
99
104
98
95
94
112
109
100
100
104
97
95
96
98
89
93
85
99
103
96
104
91
88
82
108
108
97
99
95
96
100
98
105
95
92
85
83
78
93
88
76
93
82
95
85
92
83
90
93
91
109
91
85
82
83
90
82
82
83
74
82
86
84
81
88
92
89
90
86
91
94
87
96
95
102
84
77
78
85
91
90
87
103
94
91
103
97
100
95
92
85
86
91
98
92
87
88
86
96
94
102
99
96
98
101
109
105
96
87
89
78
93
86
87
78
79
81
99
103
103
84
90
92
107
102
93
82
86
78
82
87
89
99
86
82
86
88
92
102
101
93
89
86
93
90
102
91
78
72
79
87
85
90
87
86
77
98
100
108
111
93
87
83
100
117
109
96
92
86
88
94
89
79
98
95
91
96
100
106
107
110
104
100
101
113
111
104
91
87
90
74
89
92
90
98
93
86
86
101
110
106
99
97
105
92
94
91
87
93
89
97
87
101
96
97
90
85
96
102
120
86
82
88
93
96
93
87
85
96
89
83
85
89
95
94
99
82
87
93
100
99
96
88
86
92
89
82
74
84
89
102
91
84
92
110
116
103
115
96
104
106
102
93
89
83
85
90
91
75
78
74
91
89
102
107
105
96
99
95
112
128
113
91
81
83
100
101
108
94
85
86
89
99
116
93
87
94
94
114
110
111
95
90
86
97
99
98
103
90
97
89
91
103
108
98
95
91
84
86
88
100
88
78
81
91
98
92
104
102
85
91
92
115
111
102
92
83
82
89
103
98
92
81
76
83
97
101
99
86
85
92
100
123
119
104
100
92
108
109
110
103
87
81
88
84
110
99
98
86
91
105
96
116
109
110
97
90
99
93
106
106
85
80
86
102
99
95
92
85
101
96
103
99
105
96
100
86
97
98
107
101
98
82
79
93
99
103
93
82
91
93
102
92
90
81
83
96
93
101
95
86
80
81
93
111
102
92
82
83
92
98
99
95
102
91
95
102
106
101
89
100
92
102
109
97
94
77
91
95
98
98
89
87
90
97
93
97
86
94
90
103
112
108
93
92
93
89
90
98
100
92
88
87
98
93
101
98
100
98
107
93
86
88
101
107
101
90
88
88
101
87
101
91
88
97
97
116
108
91
92
99
96
108
105
100
95
96
97
101
91
100
101
96
92
100
93
95
91
91
87
84
98
106
109
96
90
83
96
100
102
102
94
86
98
93
99
95
91
92
75
87
92
82
83
92
89
85
100
90
97
109
103
96
92
108
107
106
92
89
87
86
95
102
87
92
81
83
87
89
99
103
91
84
89
94
97
100
100
82
77
75
91
97
95
73
74
90
99
93
85
87
89
96
94
96
90
102
89
94
86
95
87
95
94
82
79
87
87
97
82
86
75
88
93
95
87
83
84
80
90
80
96
102
86
76
85
84
92
99
100
90
84
88
79
99
106
99
77
80
86
89
91
91
90
78
98
102
96
99
91
79
75
84
93
111
106
85
85
97
99
101
102
114
105
98
92
91
95
106
91
81
68
90
93
93
97
87
84
82
105
103
97
112
86
104
100
102
93
88
87
83
101
81
81
80
86
95
93
96
90
87
82
87
101
99
83
100
92
93
84
98
90
95
90
83
91
96
105
100
83
70
78
89
96
93
78
73
82
90
106
104
93
89
81
88
103
103
88
91
83
96
88
91
94
97
83
84
75
97
108
105
96
84
84
98
101
106
97
75
95
97
99
91
92
88
77
98
94
88
94
95
102
87
89
82
99
102
101
90
82
90
101
94
108
90
79
78
84
104
99
93
80
82
88
78
87
81
95
86
97
95
91
88
91
90
86
80
91
103
98
75
73
90
101
99
85
70
57
71
89
87
85
56
66
75
95
92
94
85
102
97
89
100
101
103
91
76
68
84
83
89
77
80
86
92
100
96
87
91
83
92
102
100
96
86
101
93
90
83
93
95
101
99
97
88
90
87
92
93
96
93
81
83
77
95
98
99
87
77
82
85
94
105
90
90
75
81
84
98
95
88
93
90
87
86
80
88
82
92
89
80
73
80
93
88
88
85
87
84
89
110
82
85
74
75
75
83
74
78
80
89
79
97
81
91
80
99
88
98
96
90
93
89
88
82
89
97
91
96
92
91
83
96
82
93
98
102
99
83
74
77
92
93
85
81
76
80
87
89
88
88
84
93
84
108
99
98
84
87
102
93
94
83
78
81
71
82
86
86
85
93
84
101
90
96
79
87
91
95
91
97
89
80
72
86
76
91
101
96
82
83
79
86
98
90
88
85
78
90
87
86
88
81
75
80
91
94
97
89
89
87
95
101
92
85
83
93
92
81
89
84
89
92
90
106
101
96
92
83
94
90
101
101
104
86
86
79
99
97
93
86
73
66
84
91
120
99
81
98
94
116
106
101
82
91
86
95
98
89
77
76
80
94
94
88
87
83
86
93
104
96
94
92
87
74
85
99
104
89
88
89
87
103
90
94
84
75
79
84
88
83
96
81
82
87
76
92
103
85
101
87
75
84
81
89
80
86
98
76
77
81
86
82
89
90
79
84
102
98
90
89
82
82
91
106
99
97
92
69
72
93
105
104
86
69
91
86
104
99
82
84
89
99
92
97
76
84
80
93
100
81
78
85
96
90
92
81
82
99
98
82
79
70
92
88
99
88
72
68
75
78
88
96
93
75
71
78
86
94
98
86
73
72
79
94
102
93
78
87
89
97
100
90
82
86
72
75
85
94
93
76
86
92
107
96
94
97
94
99
101
96
106
94
92
84
91
94
96
96
92
87
97
104
90
91
95
100
89
92
98
90
92
104
94
100
86
76
87
94
96
97
85
79
86
86
95
100
88
106
96
86
88
98
89
100
90
94
87
85
90
83
83
86
78
94
89
86
85
79
95
95
86
83
85
98
88
85
76
82
88
95
95
89
91
93
92
93
98
90
86
93
100
102
86
84
88
89
102
99
91
89
105
98
96
104
85
89
94
90
100
93
94
90
83
86
89
90
93
94
96
88
91
93
102
108
98
93
77
90
98
95
88
82
92
96
89
80
92
87
93
88
92
93
97
99
91
93
99
90
98
80
82
79
81
99
90
92
79
90
91
103
101
90
93
89
90
85
92
94
93
81
75
74
84
104
94
82
85
92
103
102
106
90
82
90
91
95
88
85
78
80
94
98
88
89
83
90
85
96
102
98
110
91
81
83
92
106
102
87
84
77
83
93
97
95
101
95
87
106
98
102
102
102
112
100
88
91
106
102
99
95
86
101
108
104
95
86
101
103
77
83
94
88
90
94
90
87
105
89
88
86
83
99
98
98
106
98
91
88
85
93
99
103
93
91
90
84
100
91
89
70
88
91
91
86
91
92
104
100
96
94
97
99
102
90
99
97
97
112
101
91
97
102
101
94
100
101
103
92
101
104
96
87
92
83
80
91
102
103
90
93
93
94
104
103
106
97
84
87
87
94
101
99
87
84
89
106
114
97
85
83
80
87
108
115
97
84
75
84
93
105
105
98
83
89
87
99
103
93
86
78
93
100
97
103
89
89
87
93
97
96
97
82
85
83
85
98
103
85
79
77
91
100
100
90
87
93
90
92
100
104
92
85
91
91
93
85
95
83
98
92
91
78
91
96
106
96
94
86
89
98
91
104
101
94
93
82
89
90
91
91
106
95
97
100
92
102
97
101
97
94
97
101
108
96
97
91
80
85
76
93
90
104
90
88
83
83
98
105
105
91
80
76
90
93
104
102
84
70
78
94
107
113
94
81
75
86
98
88
92
84
91
76
93
99
94
99
76
75
83
102
110
96
80
79
76
107
102
111
97
82
84
92
105
101
96
91
76
89
89
100
109
90
80
91
95
97
108
96
95
82
90
86
101
98
99
103
89
99
98
102
96
99
90
89
96
94
93
91
91
91
94
94
95
87
94
96
94
89
97
101
102
90
92
89
83
105
95
92
90
79
85
80
101
94
87
88
84
95
99
102
107
93
86
87
98
104
98
93
85
90
86
94
89
94
90
75
73
91
98
98
83
83
77
91
108
105
99
85
97
91
106
108
96
94
96
96
102
97
104
98
106
102
101
99
109
102
103
102
96
104
93
100
98
77
91
101
108
85
100
87
92
93
100
98
95
92
90
94
102
110
102
95
90
89
96
101
97
95
82
79
87
84
86
91
80
86
82
99
83
98
90
107
90
92
98
105
111
92
81
79
75
100
90
94
84
83
86
93
97
86
81
87
97
109
108
96
88
104
97
107
97
101
97
87
86
79
87
105
94
78
91
91
98
104
90
92
90
92
102
109
103
89
89
92
89
98
108
101
95
90
93
81
95
82
95
78
80
79
78
97
91
89
76
86
102
93
99
101
80
80
88
91
95
93
83
90
95
92
93
83
95
85
92
92
86
88
86
84
83
93
100
85
83
85
98
102
114
114
95
99
90
102
94
106
92
82
74
69
76
94
90
92
85
91
76
98
105
117
97
93
93
92
95
107
84
86
81
88
85
85
86
90
85
87
81
96
101
99
99
88
99
96
104
96
99
85
87
92
96
94
99
78
82
91
107
100
105
100
98
96
91
101
96
100
92
81
83
80
95
95
104
94
88
81
94
108
114
104
92
88
76
98
105
99
94
80
63
75
90
100
90
74
75
74
93
98
99
106
92
97
84
94
95
108
87
82
79
94
91
101
96
89
91
89
94
88
98
92
78
86
85
97
94
95
80
60
80
103
91
105
90
85
105
105
114
102
93
79
89
98
95
99
73
80
61
77
91
94
98
84
73
76
90
102
108
92
84
88
81
86
93
89
80
71
74
85
81
84
73
83
78
95
94
100
99
107
95
88
73
81
84
85
78
89
78
70
80
69
86
83
97
87
81
82
87
88
100
84
85
92
93
91
93
83
86
84
98
100
86
87
87
86
90
108
107
109
95
88
99
102
108
103
90
97
102
85
111
96
98
86
99
93
102
105
96
84
85
75
105
96
102
90
99
95
88
101
88
113
104
107
99
97
94
97
96
92
80
82
79
90
78
81
73
82
89
100
92
81
73
96
99
100
97
89
83
85
96
96
90
82
78
85
94
101
90
86
75
91
97
108
93
97
94
95
88
91
109
98
106
95
85
83
83
90
87
82
82
86
84
93
93
91
94
97
104
100
102
96
99
92
89
89
85
98
99
86
89
93
110
114
117
123
134
136
126
113
78
59
54
56
60
62
52
52
64
90
84
87
83
102
104
128
125
134
124
126
111
115
99
98
85
67
67
75
84
90
96
83
94
92
79
88
72
76
72
74
73
75
80
86
89
92
88
88
97
94
110
104
97
111
114
111
121
112
111
112
101
102
89
86
86
84
83
79
86
95
97
110
127
135
137
154
144
133
106
71
49
37
38
33
36
26
58
64
65
89
72
78
83
99
102
111
98
107
100
108
125
123
118
105
107
102
100
119
114
106
102
88
92
94
110
107
91
90
90
89
96
107
107
86
95
87
91
97
109
98
89
90
97
100
96
108
109
90
92
87
103
105
108
95
81
75
87
96
116
115
97
79
74
94
94
100
95
85
91
107
112
123
128
102
82
52
37
49
58
65
65
80
105
140
150
149
119
126
128
114
124
93
59
35
29
35
38
50
52
59
68
99
100
118
116
118
113
113
117
134
128
115
112
107
98
111
109
116
102
100
85
109
110
97
88
84
76
76
81
88
97
84
94
92
95
111
117
113
107
109
105
121
132
130
108
112
104
96
101
101
91
80
44
36
41
46
44
70
75
89
94
112
107
110
92
67
54
49
74
72
76
79
73
93
99
130
136
146
127
96
87
76
77
82
79
81
70
87
97
110
124
128
128
135
149
149
138
111
83
72
66
77
77
91
85
102
100
115
130
150
130
84
75
86
106
119
106
94
80
69
58
59
64
78
76
47
27
15
9
29
33
43
52
54
71
93
112
101
115
116
114
108
105
116
116
117
115
104
112
108
110
119
112
109
105
107
120
146
154
165
168
188
199
215
204
183
165
122
67
-2
-45
-68
-76
-57
-8
62
107
87
82
54
30
8
9
28
47
61
51
24
32
54
72
91
99
109
133
156
169
176
184
192
188
173
163
152
120
85
62
36
43
88
129
162
144
125
44
-28
-44
-62
-51
-44
-3
48
93
141
184
198
188
158
139
89
45
18
24
27
52
69
71
95
113
116
126
134
137
133
123
113
111
112
126
106
114
109
116
108
98
102
117
102
106
74
62
59
50
51
37
32
38
50
69
87
112
122
123
120
126
132
124
109
111
94
84
62
58
38
29
5
1
7
35
73
105
127
163
172
169
126
81
43
38
34
38
34
62
64
90
121
155
165
150
140
125
110
109
110
109
105
102
98
100
113
91
74
64
54
45
40
25
-7
-18
-25
23
56
77
99
116
137
134
129
129
115
106
102
100
112
112
120
124
117
89
65
62
86
109
112
105
89
94
86
113
127
129
119
93
95
96
112
115
116
110
103
96
101
115
112
98
90
75
92
92
95
96
95
94
94
101
90
86
54
23
21
27
63
83
124
135
137
119
94
56
37
17
-5
-16
-14
17
32
77
82
110
129
138
152
154
137
127
115
103
103
106
114
127
122
121
101
110
92
91
65
34
6
10
43
85
106
117
104
107
123
109
59
32
23
31
51
76
99
112
117
126
121
131
129
123
125
114
112
104
112
100
91
94
88
101
97
91
81
79
97
89
98
87
82
76
78
88
95
133
121
119
116
113
101
91
80
73
82
76
81
96
98
110
95
103
109
116
118
99
80
56
50
43
48
66
79
97
78
48
38
40
56
72
76
88
91
95
108
130
131
145
149
137
138
147
135
122
100
70
67
67
86
87
83
74
86
101
126
146
144
139
138
134
122
104
84
56
6
-36
-61
-59
-7
19
4
2
45
82
132
125
125
130
144
173
217
217
200
167
161
123
105
66
24
6
36
49
69
128
194
229
209
167
85
-18
-70
-98
-106
-92
-61
-3
52
67
73
74
86
110
132
149
164
170
173
191
190
177
161
155
147
133
139
125
103
70
17
-37
-42
-58
-32
14
41
79
91
106
123
139
132
133
166
162
145
126
96
81
87
90
97
97
124
126
135
125
110
102
95
87
66
34
44
26
20
-10
-57
-58
-25
-21
1
48
87
124
149
163
178
179
165
149
116
101
104
95
90
91
110
103
110
109
88
80
74
56
48
42
37
58
55
69
76
84
78
78
80
82
106
120
119
116
109
102
119
123
121
114
95
91
95
109
116
102
91
84
86
77
66
62
69
70
74
76
97
97
107
105
89
92
105
111
105
127
113
97
99
95
115
109
116
117
99
93
103
114
96
90
60
51
47
52
48
60
60
64
72
70
101
100
99
96
97
104
106
106
105
104
117
104
94
99
110
102
104
97
95
90
111
109
121
104
104
102
110
126
125
129
121
133
142
118
107
110
115
116
104
79
61
57
72
75
77
90
114
113
132
149
151
155
148
138
131
117
98
66
21
-9
-5
-18
-45
-59
-59
-36
-10
19
34
65
109
129
164
165
157
149
143
128
127
92
69
24
-3
-3
-9
13
57
75
71
80
73
93
111
130
152
146
166
161
176
170
164
156
134
138
124
114
122
117
121
113
106
98
94
103
99
93
94
89
101
115
131
137
139
121
103
94
88
82
71
75
68
72
63
74
77
66
72
52
51
72
83
82
101
102
118
120
131
132
144
141
143
128
120
124
157
147
153
140
140
113
65
1
-62
-118
-142
-148
-154
-113
-69
-30
-22
-2
45
77
97
101
105
117
142
161
171
172
170
162
161
173
163
160
133
130
122
152
152
145
113
80
42
18
19
47
45
49
66
93
135
143
151
147
148
164
153
150
155
126
129
142
180
203
195
191
140
52
-18
-68
-89
-69
-72
-95
-124
-102
-59
19
88
128
162
212
225
219
204
195
171
143
130
125
124
129
122
116
114
112
92
83
93
90
87
88
72
76
79
82
84
80
87
74
76
92
92
94
78
79
71
84
108
104
103
117
112
117
115
103
103
114
100
87
83
56
61
55
79
103
131
138
110
82
64
64
72
80
100
126
124
108
110
93
91
59
54
51
73
90
117
129
99
92
52
45
42
40
39
53
73
84
88
89
69
49
36
39
67
80
95
94
99
117
144
145
154
155
153
147
164
158
147
147
123
135
134
147
142
156
139
122
92
81
95
92
90
55
14
-27
-33
-31
-20
-22
-26
10
42
61
81
97
111
129
140
150
131
133
130
121
116
106
101
101
93
91
94
104
121
139
134
127
117
114
122
119
121
125
110
100
89
87
94
101
99
96
95
103
118
119
92
92
87
87
83
68
34
14
7
-11
12
23
42
84
106
107
108
104
102
96
100
76
64
61
71
87
93
93
103
89
97
105
106
119
108
101
82
85
103
118
113
105
89
76
80
86
111
103
82
73
86
94
113
117
102
82
86
96
106
118
115
93
82
82
98
111
101
94
84
95
87
98
89
74
93
84
65
67
62
61
63
60
68
84
89
89
98
97
98
105
128
109
104
106
96
109
106
107
99
95
90
88
86
93
94
91
106
85
93
81
94
99
89
91
94
99
96
89
89
84
89
82
79
68
81
84
88
85
90
83
96
87
110
99
92
84
90
94
95
86
86
83
76
92
79
82
87
80
78
81
98
100
96
91
85
88
85
89
90
92
85
84
88
104
90
93
93
91
95
102
108
86
90
77
79
84
81
93
73
87
65
87
100
87
92
97
99
107
107
98
101
98
86
86
85
95
81
88
78
77
69
86
74
84
87
98
87
87
92
84
103
100
103
86
83
100
98
92
91
85
70
88
79
88
84
78
78
79
82
88
99
105
94
95
96
100
112
92
90
91
87
96
97
94
91
81
77
81
94
106
103
87
86
81
101
103
107
92
88
92
85
99
96
108
96
90
94
94
104
86
88
90
77
85
90
86
87
87
81
74
89
101
99
89
84
87
84
103
109
97
89
86
90
102
103
109
83
86
82
91
95
103
86
93
86
87
87
95
100
90
85
68
77
83
88
78
85
67
84
94
101
98
82
85
93
96
96
95
85
74
84
80
101
98
80
73
74
88
89
103
99
91
81
86
96
108
106
95
81
83
108
104
105
95
84
81
87
108
110
95
74
76
89
157
176
187
161
145
125
141
129
132
127
89
84
84
85
102
98
85
75
69
83
75
71
71
60
55
59
76
75
66
48
58
67
78
77
81
81
71
71
77
84
100
85
82
75
77
82
79
87
65
74
74
86
91
99
89
91
92
100
