wave0,wave1,wave2,wave3,wave4,wave5,wave6,wave7
0,0,-153,3,-58,30,100,-85
84,-50,-146,2,-56,36,107,-79
75,-47,-145,3,-56,34,94,-79
73,-49,-134,-2,-65,29,96,-82
73,-49,-124,-2,-60,41,104,-80
72,-51,-120,4,-60,25,100,-77
72,-48,-127,-5,-59,40,97,-79
73,-46,-143,5,-56,30,104,-83
72,-51,-157,2,-57,40,101,-69
74,-48,-168,3,-55,37,103,-77
78,-51,-182,1,-60,30,97,-77
82,-52,-190,-1,-62,41,97,-77
84,-49,-197,2,-61,39,100,-79
86,-51,-205,1,-59,24,103,-87
94,-49,-205,0,-55,31,102,-89
93,-46,-209,-1,-53,33,108,-90
97,-51,-220,3,-58,35,106,-85
93,-43,-227,2,-58,26,108,-76
83,-49,-228,1,-54,29,106,-73
89,-47,-212,5,-56,41,108,-70
88,-47,-204,3,-59,24,106,-74
87,-48,-191,0,-53,38,98,-72
89,-53,-176,4,-62,31,104,-73
83,-47,-165,4,-56,36,100,-79
87,-48,-149,4,-60,31,105,-75
90,-51,-139,7,-53,48,106,-74
89,-51,-124,6,-55,42,105,-80
88,-39,-121,0,-57,31,103,-77
86,-46,-103,3,-55,44,103,-74
87,-53,-100,4,-57,33,99,-81
92,-43,-84,1,-60,39,103,-78
87,-43,-97,1,-60,18,101,-75
86,-53,-112,2,-59,46,100,-80
89,-48,-122,4,-58,35,106,-76
92,-49,-141,6,-52,31,98,-74
89,-50,-151,-2,-58,32,106,-74
81,-50,-164,0,-61,34,95,-78
78,-49,-174,0,-71,30,98,-82
75,-54,-171,-6,-67,32,98,-77
78,-53,-169,0,-56,40,102,-79
85,-48,-175,3,-52,23,98,-82
87,-47,-176,8,-57,44,113,-76
88,-55,-176,4,-55,40,96,-81
83,-52,-178,1,-60,21,104,-77
83,-46,-181,-1,-60,33,99,-73
96,-52,-169,0,-56,39,107,-71
98,-45,-152,4,-54,40,110,-76
99,-52,-147,2,-54,25,97,-74
100,-47,-144,-2,-59,44,101,-83
88,-52,-144,-1,-60,36,106,-86
82,-50,-143,-1,-59,35,93,-81
88,-44,-143,-1,-60,38,105,-77
88,-49,-152,3,-55,43,106,-81
92,-51,-151,3,-50,41,106,-77
93,-51,-172,2,-63,31,96,-80
85,-48,-184,-4,-61,33,100,-77
80,-55,-185,0,-66,33,98,-78
80,-54,-181,2,-59,28,95,-80
83,-47,-169,2,-53,36,106,-75
86,-47,-146,4,-52,49,115,-71
84,-53,-125,2,-53,17,104,-80
80,-48,-123,-1,-62,32,99,-74
77,-51,-129,1,-67,40,97,-72
74,-54,-132,-4,-62,27,99,-77
81,-46,-154,1,-61,31,99,-76
83,-47,-180,5,-59,33,100,-79
88,-52,-213,0,-53,40,104,-78
87,-53,-215,1,-60,21,102,-80
88,-44,-223,-1,-64,39,94,-81
83,-50,-222,0,-59,33,96,-79
83,-54,-216,-2,-60,27,107,-82
88,-45,-209,7,-57,33,102,-79
91,-45,-206,2,-53,38,113,-74
92,-50,-193,5,-51,34,101,-77
91,-51,-196,2,-56,24,98,-78
86,-46,-191,1,-59,33,105,-77
86,-52,-190,6,-57,49,107,-82
90,-49,-178,1,-56,33,107,-70
89,-45,-171,12,-52,40,112,-78
96,-50,-167,5,-49,42,101,-73
94,-49,-164,0,-57,34,101,-79
87,-47,-170,-3,-64,31,100,-79
82,-52,-172,1,-60,32,88,-75
81,-48,-170,1,-62,38,107,-81
87,-56,-165,0,-60,27,104,-78
87,-46,-163,6,-54,33,106,-77
84,-48,-175,2,-63,49,95,-80
82,-50,-182,3,-63,31,101,-84
77,-52,-182,1,-59,31,95,-79
80,-52,-175,2,-64,39,99,-80
79,-54,-160,0,-56,29,97,-79
81,-48,-147,1,-57,33,100,-77
87,-49,-136,0,-59,34,108,-73
87,-55,-138,1,-55,35,99,-78
87,-51,-131,3,-57,33,101,-80
83,-53,-126,0,-62,27,89,-76
83,-50,-121,5,-60,44,104,-76
84,-49,-119,0,-59,44,101,-77
89,-51,-118,4,-55,21,101,-77
91,-44,-117,8,-55,47,108,-68
89,-50,-117,0,-55,45,106,-78
91,-48,-116,6,-61,26,105,-78
82,-49,-132,1,-64,31,94,-76
87,-48,-145,5,-60,39,105,-73
91,-46,-143,1,-54,34,109,-73
92,-52,-147,8,-56,12,100,-72
86,-44,-152,4,-57,42,107,-66
83,-51,-170,4,-60,40,106,-75
81,-46,-181,-3,-61,20,103,-78
80,-53,-188,2,-54,31,99,-78
86,-45,-201,2,-55,42,106,-79
87,-51,-208,2,-57,35,104,-91
79,-55,-219,0,-59,28,102,-88
81,-46,-231,9,-60,28,98,-92
78,-46,-231,2,-57,46,102,-90
83,-45,-215,0,-58,28,100,-81
84,-47,-194,9,-52,34,113,-82
89,-48,-180,0,-57,42,97,-76
81,-50,-166,1,-61,37,104,-79
84,-47,-159,-2,-57,28,94,-74
88,-52,-150,-2,-53,39,100,-70
89,-47,-149,7,-63,43,121,-75
90,-49,-141,0,-53,26,90,-78
89,-45,-147,1,-64,36,106,-74
89,-47,-145,0,-63,45,98,-75
90,-52,-149,0,-61,23,98,-79
100,-50,-156,1,-61,39,94,-72
92,-47,-161,2,-59,34,104,-71
87,-54,-168,2,-51,42,109,-74
90,-47,-175,-1,-61,26,103,-75
91,-50,-186,1,-55,30,95,-82
86,-47,-193,6,-60,39,105,-88
86,-51,-196,7,-59,37,96,-85
87,-47,-196,5,-56,32,105,-75
94,-54,-186,2,-49,33,105,-80
92,-44,-184,3,-53,47,106,-80
91,-45,-177,4,-57,31,103,-77
90,-49,-172,2,-62,35,99,-74
81,-53,-164,2,-57,38,97,-72
86,-55,-155,-2,-62,28,102,-78
89,-45,-152,6,-59,30,99,-76
89,-49,-160,3,-51,38,102,-72
89,-47,-172,2,-60,34,101,-77
82,-49,-200,0,-53,31,93,-78
80,-43,-213,2,-56,46,97,-77
88,-52,-210,2,-58,34,101,-80
87,-50,-194,3,-59,36,102,-82
84,-48,-183,5,-55,25,102,-81
86,-47,-155,5,-56,40,101,-77
90,-53,-128,4,-55,35,104,-84
83,-46,-120,2,-61,30,104,-76
88,-53,-123,2,-60,43,104,-78
87,-46,-113,1,-55,54,107,-80
86,-50,-122,6,-54,23,110,-83
90,-49,-125,3,-50,35,100,-72
84,-50,-126,1,-57,49,115,-77
87,-47,-127,4,-53,45,97,-81
85,-47,-127,6,-56,29,108,-73
85,-46,-134,3,-56,42,109,-73
84,-54,-138,2,-60,44,97,-78
86,-47,-148,3,-61,22,106,-76
84,-48,-146,5,-55,28,97,-75
83,-51,-152,5,-52,55,108,-78
89,-53,-157,0,-58,25,103,-77
90,-39,-154,4,-54,28,107,-73
84,-53,-166,-1,-59,33,100,-84
82,-49,-161,1,-60,43,96,-86
84,-49,-162,6,-56,34,106,-86
89,-39,-153,3,-48,41,116,-74
93,-45,-148,2,-56,39,104,-85
89,-50,-145,2,-53,29,101,-74
90,-39,-145,8,-58,38,104,-72
88,-47,-143,6,-57,40,112,-69
87,-50,-149,2,-55,34,110,-74
93,-41,-161,8,-51,44,106,-64
91,-46,-177,6,-56,31,114,-72
89,-51,-181,2,-55,38,100,-71
87,-43,-190,6,-53,32,105,-76
89,-49,-196,5,-54,32,101,-75
84,-45,-197,1,-62,34,105,-75
86,-56,-205,2,-62,33,104,-81
84,-45,-208,7,-57,35,94,-75
86,-48,-215,0,-59,31,106,-78
86,-50,-220,3,-54,46,103,-73
90,-47,-225,5,-57,39,103,-79
85,-46,-221,-1,-56,26,96,-79
84,-49,-210,0,-55,37,100,-76
85,-49,-196,3,-59,45,104,-78
83,-46,-185,0,-52,28,100,-73
87,-43,-171,3,-54,37,104,-70
88,-49,-162,7,-52,41,100,-76
88,-48,-146,2,-55,31,100,-71
89,-42,-139,8,-52,41,105,-72
90,-50,-129,3,-60,40,104,-73
88,-51,-119,3,-58,39,104,-77
89,-41,-112,8,-56,34,108,-74
94,-48,-97,4,-49,37,106,-75
97,-44,-92,5,-60,51,109,-80
93,-51,-100,7,-50,34,107,-73
89,-46,-127,5,-58,32,104,-75
81,-44,-143,-1,-65,48,100,-75
81,-53,-155,-2,-60,22,106,-80
85,-49,-166,7,-52,31,101,-76
92,-48,-162,2,-51,35,115,-74
91,-49,-164,2,-53,43,103,-78
88,-49,-168,1,-61,28,97,-73
84,-52,-173,2,-58,18,103,-74
79,-47,-173,0,-59,34,89,-74
82,-54,-170,1,-58,47,110,-80
89,-47,-164,10,-47,32,109,-79
95,-42,-165,2,-51,32,106,-89
86,-50,-169,4,-61,37,91,-93
79,-53,-169,3,-63,31,98,-83
82,-52,-163,0,-60,32,105,-76
81,-49,-149,6,-54,44,106,-74
93,-49,-138,4,-50,35,103,-65
96,-44,-142,7,-51,34,113,-67
91,-42,-139,3,-56,37,102,-73
83,-57,-150,-2,-64,44,94,-73
78,-49,-154,3,-56,28,103,-75
88,-46,-153,5,-56,42,108,-74
95,-44,-152,6,-51,45,111,-73
97,-44,-154,4,-52,44,111,-73
89,-47,-167,6,-52,24,100,-80
85,-47,-164,4,-65,36,97,-76
86,-52,-159,1,-56,38,103,-81
84,-48,-142,3,-57,25,108,-74
89,-44,-129,3,-54,38,106,-73
88,-49,-123,5,-57,38,110,-72
92,-46,-137,2,-57,35,102,-72
87,-45,-155,4,-51,30,105,-68
89,-46,-168,-1,-60,33,104,-66
87,-48,-198,6,-56,31,106,-70
83,-45,-206,2,-53,32,99,-74
88,-50,-206,7,-53,43,107,-86
86,-48,-206,1,-60,36,98,-90
83,-53,-201,-1,-61,33,102,-70
81,-48,-191,3,-61,24,102,-86
85,-48,-186,0,-61,43,98,-87
87,-54,-183,1,-61,35,111,-80
88,-47,-181,2,-56,22,100,-67
86,-49,-176,6,-54,43,102,-67
88,-46,-182,-1,-61,32,99,-66
82,-54,-182,3,-61,31,103,-72
86,-48,-183,-2,-62,26,100,-81
83,-49,-174,1,-54,41,105,-82
87,-51,-165,7,-53,41,109,-79
94,-40,-165,3,-54,35,105,-81
89,-46,-169,9,-53,35,97,-85
86,-52,-166,3,-59,38,107,-81
85,-48,-170,1,-60,26,104,-76
91,-43,-163,1,-55,43,105,-81
90,-50,-163,10,-56,40,110,-78
93,-51,-165,6,-54,30,104,-76
89,-44,-175,5,-52,33,104,-75
83,-47,-175,2,-59,29,95,-78
84,-56,-178,-3,-61,39,98,-80
88,-45,-163,4,-52,28,102,-66
86,-49,-161,2,-59,39,104,-73
88,-43,-152,2,-55,35,107,-68
82,-51,-150,4,-55,39,99,-80
87,-44,-143,4,-61,35,101,-83
84,-53,-138,3,-58,37,105,-87
86,-48,-126,0,-56,29,107,-80
91,-48,-117,6,-59,29,104,-71
89,-42,-106,6,-52,40,114,-74
89,-50,-103,4,-57,36,101,-75
89,-48,-91,1,-55,42,110,-76
83,-42,-96,8,-60,28,100,-73
91,-48,-105,2,-59,35,103,-76
83,-49,-121,3,-56,41,103,-74
86,-51,-135,5,-59,34,110,-70
89,-38,-143,3,-59,44,97,-69
88,-55,-160,-2,-58,33,104,-78
83,-50,-180,2,-62,27,95,-81
83,-45,-187,5,-61,29,92,-91
84,-54,-200,-1,-61,42,101,-97
80,-53,-204,-2,-61,30,97,-91
83,-46,-216,-1,-59,29,105,-81
83,-49,-222,7,-60,31,100,-78
84,-55,-227,2,-60,42,95,-69
85,-45,-218,5,-52,28,109,-68
93,-44,-198,8,-56,27,103,-69
93,-47,-180,8,-52,49,103,-72
89,-46,-161,1,-54,30,103,-72
97,-46,-152,6,-57,31,100,-71
89,-44,-148,5,-56,37,99,-79
90,-54,-146,2,-60,47,105,-77
90,-42,-149,-1,-53,29,99,-78
84,-47,-148,5,-61,40,105,-80
85,-53,-154,1,-59,31,100,-76
84,-48,-156,-1,-60,34,95,-85
84,-47,-151,3,-62,37,101,-73
85,-48,-156,2,-54,38,100,-76
87,-56,-162,4,-60,34,105,-78
86,-49,-170,-5,-63,25,101,-73
76,-44,-179,2,-55,31,99,-73
85,-51,-183,1,-60,33,104,-78
89,-58,-193,2,-52,34,105,-74
86,-39,-191,5,-59,22,99,-75
81,-49,-195,7,-64,45,101,-79
83,-54,-187,1,-59,35,102,-84
83,-52,-180,3,-58,31,106,-87
89,-43,-170,2,-55,46,105,-84
89,-50,-156,4,-59,35,111,-90
86,-52,-153,1,-55,34,101,-86
83,-48,-147,2,-63,36,107,-77
88,-45,-146,5,-52,38,105,-68
89,-54,-157,1,-51,34,107,-74
92,-46,-175,3,-55,34,105,-65
89,-45,-201,3,-53,35,105,-70
84,-48,-218,4,-55,34,105,-87
84,-52,-222,2,-54,36,100,-77
87,-44,-213,3,-57,27,107,-79
86,-47,-200,3,-55,31,98,-83
87,-54,-164,6,-51,34,104,-80
84,-46,-138,2,-59,21,102,-80
83,-47,-131,3,-60,36,98,-79
84,-49,-126,5,-60,32,104,-75
87,-46,-119,0,-60,34,107,-76
86,-48,-121,5,-57,29,100,-77
87,-49,-123,2,-61,36,103,-79
89,-54,-121,3,-55,35,109,-76
84,-44,-126,1,-62,29,100,-74
89,-42,-125,6,-55,33,105,-75
87,-50,-132,3,-59,44,101,-85
88,-53,-136,3,-58,23,107,-77
79,-45,-151,0,-63,39,90,-79
83,-48,-159,0,-60,38,101,-78
82,-53,-159,2,-57,35,102,-71
85,-47,-161,0,-62,28,101,-79
87,-45,-168,4,-60,42,98,-82
87,-56,-170,-3,-60,28,104,-82
86,-52,-167,1,-58,32,107,-77
85,-45,-170,0,-55,24,105,-76
91,-51,-158,5,-62,40,101,-78
86,-48,-159,3,-53,37,105,-71
87,-50,-147,2,-57,26,103,-79
86,-46,-143,3,-56,47,107,-75
90,-53,-141,1,-52,36,105,-72
93,-46,-148,5,-55,34,108,-72
86,-44,-166,4,-61,37,99,-76
84,-46,-174,5,-58,38,96,-76
83,-51,-185,2,-55,41,106,-76
87,-43,-190,3,-56,24,105,-76
92,-45,-195,0,-58,31,107,-76
84,-54,-206,7,-61,45,104,-77
86,-49,-201,0,-58,25,98,-76
85,-45,-213,5,-59,31,102,-78
91,-47,-208,1,-54,49,109,-80
85,-53,-216,4,-51,32,105,-76
94,-44,-212,5,-58,34,105,-76
91,-46,-207,2,-54,42,99,-81
87,-52,-199,5,-55,32,103,-76
87,-49,-191,2,-61,26,102,-78
89,-42,-176,4,-57,33,95,-80
84,-52,-169,2,-60,47,104,-80
80,-47,-156,4,-57,32,101,-78
85,-48,-144,3,-58,34,102,-75
89,-44,-133,3,-55,42,103,-77
88,-50,-120,9,-49,34,107,-72
89,-45,-115,3,-59,39,110,-77
89,-46,-117,0,-60,33,99,-77
87,-48,-103,4,-55,43,101,-76
91,-51,-99,6,-56,36,112,-72
89,-41,-105,5,-49,35,109,-72
94,-42,-121,9,-49,33,107,-72
97,-48,-134,9,-49,41,111,-68
95,-44,-151,6,-52,36,107,-72
93,-44,-161,7,-58,35,104,-73
85,-46,-169,2,-59,41,96,-71
88,-53,-174,7,-55,29,103,-78
83,-38,-174,3,-63,26,101,-79
84,-48,-178,3,-56,32,101,-78
85,-51,-173,3,-57,32,104,-79
89,-46,-165,4,-55,30,108,-75
87,-44,-167,3,-55,32,96,-77
85,-51,-168,3,-66,31,103,-77
84,-49,-164,5,-58,32,99,-75
85,-49,-152,4,-52,40,106,-73
97,-37,-136,8,-54,41,111,-75
90,-52,-130,2,-49,37,103,-73
90,-45,-135,7,-64,36,107,-79
86,-44,-136,-2,-64,32,95,-73
82,-45,-131,2,-57,39,104,-76
88,-53,-134,8,-55,31,113,-75
95,-44,-142,2,-50,41,106,-72
95,-43,-144,8,-51,33,108,-76
90,-49,-153,5,-58,38,110,-80
84,-49,-166,0,-59,27,97,-72
84,-48,-163,2,-59,37,102,-83
85,-50,-142,0,-58,50,113,-72
94,-53,-128,6,-52,39,106,-70
96,-43,-106,4,-49,39,108,-75
91,-44,-95,4,-58,39,103,-81
81,-58,-105,2,-63,33,93,-75
87,-48,-117,4,-67,28,104,-79
85,-44,-128,0,-61,22,97,-78
84,-49,-153,7,-57,34,96,-79
88,-53,-182,1,-55,41,105,-74
86,-48,-194,5,-55,31,97,-81
86,-45,-204,-2,-63,38,95,-78
80,-57,-206,1,-61,34,100,-78
83,-50,-209,-4,-60,26,99,-82
86,-49,-202,3,-53,39,103,-72
90,-46,-189,10,-52,39,109,-76
93,-51,-190,7,-51,33,103,-76
85,-50,-192,5,-58,25,101,-80
88,-47,-190,2,-57,38,105,-73
85,-53,-189,-2,-57,29,101,-76
88,-47,-180,9,-54,29,107,-77
88,-47,-174,1,-60,45,101,-75
84,-46,-174,1,-53,29,106,-77
86,-54,-175,-2,-57,34,104,-74
86,-42,-169,5,-56,43,102,-69
86,-44,-166,4,-55,33,104,-73
87,-50,-160,5,-57,39,109,-78
90,-43,-146,7,-51,52,101,-71
94,-44,-149,5,-56,37,107,-67
88,-47,-150,4,-56,41,101,-77
87,-47,-157,10,-55,40,100,-75
90,-45,-163,1,-51,36,101,-78
90,-51,-169,6,-63,41,97,-77
80,-47,-167,3,-58,25,105,-76
86,-48,-154,1,-59,23,101,-78
89,-43,-140,6,-60,33,100,-79
85,-52,-141,2,-54,18,100,-78
85,-52,-134,1,-58,34,96,-78
86,-48,-127,2,-66,34,96,-78
83,-49,-122,4,-63,25,95,-75
82,-56,-112,3,-58,41,100,-77
87,-51,-108,-3,-57,36,105,-82
86,-44,-99,2,-60,38,94,-74
86,-48,-87,3,-52,45,112,-76
89,-50,-81,7,-54,32,100,-80
92,-43,-92,5,-58,41,102,-77
89,-49,-109,5,-52,43,108,-76
89,-52,-126,10,-52,35,108,-77
91,-46,-139,5,-54,38,113,-70
88,-47,-148,5,-54,37,109,-72
89,-46,-163,5,-53,39,108,-69
93,-44,-176,6,-54,30,112,-77
89,-39,-183,5,-52,41,108,-71
90,-47,-196,3,-55,27,102,-74
91,-44,-201,5,-58,42,109,-76
90,-50,-205,6,-56,32,105,-79
89,-43,-212,4,-54,37,107,-72
91,-53,-212,7,-56,32,100,-76
83,-45,-208,8,-61,39,102,-82
86,-48,-188,4,-57,44,99,-72
87,-50,-172,4,-56,29,111,-80
91,-46,-153,6,-54,32,107,-74
92,-42,-143,8,-49,44,113,-73
93,-44,-142,4,-53,38,104,-75
89,-50,-147,6,-53,36,103,-76
86,-47,-146,0,-57,40,97,-80
87,-46,-142,3,-59,42,97,-75
84,-50,-141,4,-56,32,107,-77
91,-44,-138,9,-51,42,104,-72
89,-46,-140,7,-55,49,108,-76
92,-42,-139,12,-56,35,102,-75
84,-51,-149,-2,-59,35,103,-74
88,-49,-150,8,-58,47,100,-76
91,-45,-159,5,-54,27,112,-72
93,-48,-165,1,-56,39,98,-78
88,-49,-172,5,-56,35,105,-75
89,-43,-173,5,-59,31,109,-74
92,-49,-177,6,-53,28,109,-75
93,-43,-169,5,-52,33,104,-75
92,-47,-166,4,-52,42,109,-75
88,-40,-163,6,-52,40,100,-72
89,-53,-155,8,-51,36,101,-73
89,-42,-153,3,-57,35,100,-72
90,-43,-144,8,-56,45,101,-76
87,-47,-152,4,-56,42,101,-70
87,-47,-162,3,-59,30,100,-77
83,-52,-186,4,-58,39,101,-78
82,-41,-203,5,-61,31,92,-73
87,-55,-204,1,-55,28,99,-81
90,-53,-200,4,-52,40,104,-78
86,-43,-188,1,-58,37,99,-80
86,-53,-173,2,-57,31,109,-79
86,-51,-145,-1,-58,29,100,-93
88,-47,-128,4,-57,33,108,-80
89,-48,-120,2,-61,34,96,-83
87,-52,-125,1,-58,33,104,-78
89,-52,-123,4,-58,38,101,-80
84,-49,-120,3,-57,33,109,-71
87,-44,-114,6,-50,39,111,-73
95,-47,-118,5,-53,39,106,-73
87,-46,-123,6,-59,37,107,-75
82,-47,-135,0,-61,32,103,-73
85,-52,-141,-1,-64,35,90,-73
79,-50,-152,4,-61,37,103,-76
85,-45,-153,3,-57,34,107,-72
93,-47,-155,7,-49,46,109,-90
90,-50,-155,5,-52,28,111,-95
87,-47,-163,6,-58,38,92,-93
82,-49,-167,-4,-63,30,93,-87
82,-53,-171,-4,-60,30,99,-71
80,-51,-160,2,-59,39,103,-68
92,-48,-159,4,-54,37,106,-63
91,-51,-153,6,-52,40,108,-64
86,-49,-148,3,-59,24,102,-70
85,-55,-148,-3,-61,39,98,-70
80,-46,-151,-4,-64,20,98,-73
81,-53,-153,1,-59,38,100,-76
89,-47,-161,7,-55,37,108,-79
95,-45,-160,5,-50,25,108,-86
91,-51,-175,6,-54,39,109,-92
86,-47,-186,2,-61,40,88,-91
80,-47,-199,3,-65,35,98,-85
78,-49,-200,-2,-66,36,96,-80
84,-56,-203,7,-50,38,106,-78
93,-42,-196,1,-53,31,115,-75
92,-45,-205,6,-51,48,107,-64
88,-51,-221,1,-59,24,103,-77
84,-52,-241,-4,-68,33,97,-79
80,-48,-245,5,-65,29,93,-76
81,-54,-228,-4,-59,34,99,-78
88,-53,-203,5,-52,33,101,-80
97,-44,-183,8,-51,52,104,-76
92,-48,-179,4,-54,27,97,-77
84,-54,-173,0,-56,46,95,-83
85,-49,-159,-2,-62,39,94,-78
81,-50,-142,-1,-62,34,98,-73
89,-52,-121,7,-53,36,104,-79
94,-45,-107,4,-49,26,110,-67
92,-43,-96,14,-55,42,104,-69
86,-46,-99,0,-51,34,100,-74
82,-51,-98,-1,-64,24,97,-83
85,-45,-100,-1,-60,33,98,-87
88,-48,-104,5,-52,41,107,-76
91,-49,-119,10,-48,36,117,-81
91,-46,-135,4,-50,52,101,-80
88,-44,-145,1,-58,35,104,-83
84,-55,-151,2,-57,35,101,-83
87,-52,-159,1,-62,34,92,-78
78,-49,-170,4,-60,42,109,-79
87,-47,-175,-1,-55,33,106,-78
91,-50,-176,6,-53,39,110,-76
93,-45,-184,3,-54,35,106,-69
91,-46,-189,2,-57,33,101,-77
85,-53,-203,4,-62,33,101,-77
80,-47,-200,1,-62,40,103,-72
83,-48,-194,7,-54,34,109,-74
91,-45,-174,5,-54,37,118,-62
99,-41,-153,13,-45,37,116,-67
97,-45,-149,14,-52,37,104,-75
93,-40,-146,2,-58,38,102,-71
83,-54,-148,8,-57,36,107,-71
89,-43,-145,9,-58,41,103,-70
97,-39,-142,7,-45,42,110,-69
94,-41,-145,9,-45,48,116,-68
95,-47,-162,5,-57,46,102,-78
89,-45,-176,1,-61,34,95,-77
83,-47,-194,-4,-65,39,95,-80
81,-52,-190,1,-61,29,99,-80
83,-54,-177,1,-54,33,104,-79
93,-42,-161,4,-54,48,112,-72
96,-43,-134,6,-50,28,115,-77
93,-53,-131,8,-56,26,107,-78
90,-49,-137,2,-58,34,106,-80
84,-40,-144,-2,-61,32,105,-77
89,-55,-153,2,-62,33,97,-77
88,-47,-181,2,-57,36,115,-75
92,-43,-196,4,-51,31,106,-73
93,-52,-206,5,-55,39,107,-81
92,-50,-207,3,-59,23,101,-71
82,-43,-209,6,-61,42,99,-78
84,-48,-204,0,-58,33,99,-75
84,-49,-195,5,-60,29,106,-77
91,-46,-185,7,-52,38,105,-73
96,-38,-176,8,-48,45,110,-74
96,-54,-173,6,-50,35,113,-74
89,-45,-179,1,-65,40,89,-75
81,-44,-186,7,-60,36,100,-77
80,-53,-178,1,-61,45,110,-76
89,-50,-177,6,-53,37,109,-73
99,-43,-166,13,-41,38,107,-69
96,-36,-167,5,-50,60,116,-76
97,-50,-175,8,-56,39,104,-74
85,-50,-176,5,-62,30,100,-74
82,-47,-174,-1,-59,47,96,-76
83,-46,-178,4,-53,46,113,-74
89,-54,-170,4,-52,42,109,-75
96,-35,-173,10,-47,42,105,-71
87,-44,-182,-2,-61,35,100,-75
82,-51,-185,3,-59,31,104,-80
85,-49,-190,2,-62,27,93,-80
85,-49,-168,3,-61,41,97,-75
88,-50,-153,3,-58,30,109,-79
90,-53,-148,4,-53,26,103,-77
93,-47,-140,3,-60,37,108,-76
89,-44,-136,2,-53,36,105,-75
86,-48,-138,1,-59,41,101,-82
85,-51,-135,2,-66,32,101,-73
85,-40,-122,6,-57,34,101,-78
93,-48,-122,3,-61,37,109,-73
89,-48,-113,7,-55,34,103,-77
90,-49,-106,8,-57,38,103,-72
89,-41,-109,-1,-62,39,96,-80
82,-56,-116,0,-65,27,93,-80
82,-47,-127,-2,-59,30,99,-76
87,-46,-128,3,-53,35,106,-72
91,-49,-134,6,-51,34,106,-74
93,-46,-145,5,-56,38,111,-72
91,-48,-166,2,-52,37,100,-77
86,-45,-181,-4,-62,38,102,-78
79,-55,-190,0,-64,36,100,-80
91,-51,-202,3,-55,33,98,-74
88,-43,-209,4,-53,34,109,-71
92,-50,-213,5,-54,34,106,-74
90,-56,-225,7,-49,30,105,-75
92,-41,-231,3,-53,35,104,-77
89,-48,-215,6,-57,31,102,-74
88,-54,-195,4,-54,35,106,-80
86,-46,-172,0,-56,30,100,-76
88,-47,-145,3,-60,40,99,-82
85,-55,-139,0,-56,32,103,-76
86,-46,-134,6,-67,41,93,-82
82,-46,-133,5,-57,43,99,-85
85,-49,-133,9,-59,29,101,-71
92,-45,-134,5,-57,52,105,-80
89,-49,-134,7,-52,39,108,-73
95,-38,-133,3,-56,45,103,-71
93,-47,-128,5,-54,40,104,-75
90,-53,-135,2,-65,38,100,-76
86,-45,-139,3,-62,40,96,-78
88,-42,-147,3,-56,34,102,-67
94,-46,-156,4,-53,28,113,-76
97,-41,-163,4,-53,35,102,-71
95,-41,-172,6,-55,37,113,-72
91,-56,-180,0,-63,23,102,-78
86,-50,-175,4,-54,35,104,-74
90,-37,-167,6,-54,30,102,-72
93,-47,-162,7,-51,40,110,-73
103,-51,-147,7,-51,27,104,-78
95,-43,-137,6,-50,46,106,-71
91,-39,-130,9,-55,42,102,-71
89,-54,-127,3,-62,42,97,-78
84,-50,-139,4,-58,28,106,-80
90,-40,-159,4,-52,47,107,-72
92,-46,-181,9,-50,38,110,-72
90,-49,-199,4,-53,41,104,-75
86,-44,-205,6,-53,39,101,-76
86,-45,-208,7,-59,44,101,-80
78,-53,-202,-1,-57,34,102,-78
87,-49,-174,10,-54,33,106,-77
90,-45,-147,2,-53,38,106,-76
92,-53,-132,5,-56,38,100,-77
86,-48,-127,3,-57,20,103,-84
87,-50,-121,3,-64,36,96,-80
85,-49,-123,4,-55,38,103,-79
85,-55,-126,-3,-66,35,98,-81
87,-52,-126,5,-59,37,106,-82
87,-47,-128,2,-59,41,107,-76
88,-48,-134,7,-57,44,100,-75
88,-49,-138,-2,-51,36,105,-82
89,-49,-146,3,-63,46,109,-79
86,-50,-148,0,-60,38,107,-79
85,-53,-154,-2,-65,30,96,-74
82,-51,-148,2,-64,32,104,-83
88,-47,-145,2,-56,31,112,-67
93,-45,-141,8,-54,50,104,-74
95,-44,-145,0,-54,33,110,-74
85,-53,-158,0,-66,42,100,-81
79,-45,-156,1,-58,34,95,-79
87,-56,-150,-1,-60,29,100,-80
88,-45,-138,7,-55,30,103,-78
90,-41,-125,4,-51,47,110,-77
86,-54,-127,4,-52,31,98,-77
86,-48,-125,2,-64,35,96,-83
78,-53,-143,-3,-62,37,98,-82
83,-49,-157,2,-57,29,100,-79
88,-53,-160,0,-53,30,100,-75
95,-49,-165,7,-49,42,110,-78
90,-47,-172,2,-51,39,105,-79
87,-49,-176,3,-59,35,102,-78
84,-54,-184,-1,-58,22,96,-85
81,-48,-189,-1,-59,50,103,-75
85,-46,-194,2,-59,31,92,-82
83,-53,-199,1,-57,30,110,-79
91,-47,-207,4,-57,32,104,-72
90,-43,-217,7,-55,43,103,-78
86,-53,-228,6,-58,25,95,-81
79,-52,-221,1,-71,31,95,-82
78,-56,-209,-1,-67,27,95,-78
82,-46,-194,5,-58,34,105,-75
94,-51,-167,4,-51,35,112,-75
97,-47,-166,2,-49,42,105,-80
91,-41,-157,2,-57,26,103,-74
81,-57,-149,0,-63,38,96,-80
79,-52,-136,-5,-68,24,93,-79
78,-52,-117,1,-59,31,106,-77
84,-47,-106,0,-54,45,111,-72
93,-49,-94,3,-55,35,111,-76
98,-44,-89,3,-55,42,113,-72
91,-42,-97,0,-52,32,99,-69
87,-51,-118,-3,-64,48,99,-77
84,-51,-136,0,-59,39,106,-84
86,-46,-154,8,-54,33,99,-67
88,-46,-157,16,-57,46,107,-77
92,-48,-159,11,-52,34,108,-74
90,-47,-154,9,-50,36,109,-75
88,-43,-163,2,-60,43,98,-73
85,-48,-167,-2,-64,37,108,-83
98,-52,-277,-2,-74,28,103,-72
92,-48,-107,19,-51,36,101,-90
90,-189,-138,91,-48,58,104,-71
94,-1,-139,-18,-52,26,112,-76
86,-48,-147,4,-65,34,94,-75
84,-50,-145,3,-65,38,95,-81
79,-55,-145,3,-60,26,103,-82
87,-44,-138,-1,-55,31,106,-71
94,-49,-137,8,-53,45,114,-70
89,-45,-138,10,-58,34,107,-76
87,-46,-143,9,-61,31,93,-81
79,-48,-150,7,-61,29,102,-76
87,-45,-147,1,-61,31,101,-75
85,-48,-151,3,-55,33,106,-74
88,-42,-143,3,-55,25,109,-74
94,-48,-153,3,-51,48,102,-72
92,-44,-151,1,-58,32,113,-74
92,-49,-153,4,-54,34,99,-79
83,-49,-144,-1,-56,26,100,-72
85,-52,-123,12,-57,36,108,-72
88,-44,-106,15,-55,37,113,-72
94,-40,-95,6,-59,30,105,-66
91,-52,-104,4,-49,40,104,-71
88,-49,-121,0,-66,28,98,-72
83,-48,-148,-4,-67,23,104,-77
80,-48,-185,-3,-66,45,92,-75
88,-50,-204,3,-60,34,107,-81
89,-44,-211,11,-53,38,112,-83
95,-50,-208,8,-50,36,110,-84
90,-45,-201,8,-58,45,98,-83
85,-50,-201,-7,-60,29,106,-79
78,-50,-197,1,-65,36,95,-82
85,-47,-189,-4,-59,36,100,-82
83,-48,-186,-1,-62,38,114,-86
86,-49,-185,6,-56,37,106,-77
92,-46,-183,4,-54,40,109,-64
95,-42,-176,10,-52,42,106,-75
91,-48,-184,5,-61,42,107,-78
84,-51,-186,6,-64,32,96,-88
79,-48,-192,-2,-60,33,93,-73
86,-50,-187,2,-58,36,107,-71
92,-48,-184,1,-50,35,111,-67
92,-49,-185,6,-58,25,102,-74
89,-46,-188,6,-56,38,104,-77
85,-52,-195,-2,-58,22,94,-81
80,-53,-204,-3,-66,22,92,-83
82,-51,-203,-7,-62,31,103,-76
90,-46,-204,7,-52,31,105,-79
86,-46,-199,7,-53,33,115,-79
94,-46,-191,7,-53,42,99,-79
87,-52,-183,6,-62,28,99,-89
79,-47,-168,4,-62,32,94,-81
84,-47,-152,5,-59,36,101,-82
89,-47,-134,-1,-55,37,102,-79
86,-50,-126,10,-55,40,108,-78
85,-53,-117,4,-58,29,95,-83
87,-45,-109,1,-60,48,109,-81
89,-52,-99,-4,-58,25,95,-76
85,-45,-97,-6,-59,44,103,-83
83,-52,-88,-4,-61,43,109,-77
91,-49,-78,-4,-59,40,103,-79
90,-48,-83,-1,-58,21,103,-78
87,-54,-95,2,-60,42,99,-74
89,-47,-115,0,-60,38,100,-77
86,-49,-134,4,-61,33,103,-74
83,-49,-147,0,-61,23,97,-74
86,-51,-163,4,-61,24,102,-71
85,-50,-175,3,-58,37,108,-68
89,-44,-187,4,-54,27,104,-74
89,-48,-198,4,-51,48,102,-80
88,-45,-212,3,-59,31,112,-77
86,-44,-229,6,-59,43,96,-83
84,-48,-232,4,-63,42,100,-76
88,-49,-228,7,-55,50,111,-72
89,-48,-224,3,-54,47,101,-74
91,-42,-209,9,-56,37,109,-79
91,-46,-189,4,-57,45,102,-74
84,-53,-173,1,-60,45,95,-77
83,-43,-164,3,-63,34,102,-80
80,-48,-153,5,-59,33,98,-76
83,-53,-147,4,-62,42,101,-76
87,-43,-145,-4,-56,39,110,-76
90,-51,-140,6,-55,30,102,-75
87,-48,-146,5,-58,35,106,-81
89,-45,-149,1,-58,30,106,-90
87,-52,-157,6,-62,34,98,-94
87,-52,-157,6,-55,21,99,-81
92,-43,-153,5,-52,39,110,-80
91,-43,-164,3,-56,40,104,-71
90,-47,-173,7,-59,35,105,-64
94,-47,-178,1,-56,27,108,-62
90,-45,-192,1,-61,35,108,-69
89,-50,-190,3,-49,14,100,-70
87,-50,-195,-2,-64,27,104,-70
88,-49,-199,2,-60,31,102,-75
86,-50,-194,4,-57,17,94,-78
85,-49,-192,8,-63,37,98,-75
84,-48,-188,3,-63,38,97,-73
81,-54,-177,12,-61,29,95,-80
83,-46,-162,4,-61,20,105,-96
84,-56,-157,-1,-64,41,99,-84
83,-46,-162,-1,-59,37,103,-83
83,-48,-168,-8,-59,35,103,-83
85,-52,-198,-5,-61,33,91,-83
83,-54,-206,-3,-61,42,106,-82
82,-52,-212,1,-59,43,100,-68
86,-53,-198,3,-54,46,99,-66
89,-48,-186,1,-58,36,112,-67
90,-46,-158,12,-51,46,105,-66
92,-47,-136,0,-52,16,103,-60
92,-47,-127,9,-57,23,101,-75
87,-43,-125,3,-61,29,106,-96
86,-49,-122,3,-56,25,98,-102
89,-48,-124,5,-53,26,109,-120
93,-49,-115,4,-57,40,100,-112
84,-47,-125,2,-56,40,104,-83
84,-56,-124,-2,-59,34,103,-62
88,-47,-118,5,-58,45,105,-48
90,-50,-120,2,-57,54,109,-77
87,-49,-123,6,-59,46,95,-89
85,-50,-129,-3,-58,33,98,-76
84,-51,-135,7,-59,50,106,-67
85,-53,-140,3,-56,44,95,-90
88,-48,-148,-2,-58,42,102,-111
80,-55,-154,4,-59,32,97,-96
86,-45,-156,-1,-60,34,101,-100
84,-52,-163,5,-56,16,96,-100
91,-48,-163,3,-62,25,100,-62
83,-45,-161,7,-61,24,98,-28
90,-48,-157,5,-57,32,104,-1
88,-49,-151,2,-58,21,100,-5
86,-47,-143,-3,-61,30,102,-29
86,-54,-152,0,-62,33,102,-57
85,-50,-163,5,-56,28,103,-85
84,-52,-177,5,-58,19,106,-82
90,-50,-184,1,-57,32,101,-80
84,-49,-189,1,-61,30,107,-82
90,-51,-197,2,-59,39,106,-86
89,-47,-195,5,-53,41,110,-79
90,-47,-199,3,-59,45,103,-78
84,-53,-204,-2,-55,42,103,-92
85,-46,-201,4,-58,42,103,-104
87,-49,-208,2,-58,49,108,-102
87,-43,-223,4,-50,29,101,-100
83,-55,-230,1,-65,30,100,-88
88,-51,-218,3,-55,40,102,-83
86,-45,-203,7,-58,32,104,-74
86,-51,-183,4,-51,28,104,-70
88,-43,-171,6,-53,30,110,-63
90,-53,-157,2,-53,26,104,-71
85,-45,-153,2,-57,20,98,-65
85,-54,-146,2,-58,31,105,-62
83,-52,-138,1,-60,20,101,-57
87,-47,-115,4,-52,33,105,-54
87,-53,-104,3,-53,20,103,-82
91,-48,-94,5,-52,40,110,-111
89,-46,-89,7,-54,43,102,-115
84,-48,-88,0,-56,36,97,-104
87,-51,-103,5,-61,37,104,-89
83,-47,-123,5,-55,47,98,-72
90,-51,-136,2,-59,34,105,-90
90,-47,-149,5,-50,39,100,-113
88,-48,-153,1,-55,43,110,-112
88,-45,-158,7,-60,46,101,-83
84,-52,-162,0,-52,29,99,-37
88,-45,-160,0,-56,17,103,-33
91,-39,-159,8,-55,36,106,-19
91,-53,-160,6,-52,26,102,-34
90,-46,-154,7,-52,43,107,-28
83,-43,-161,12,-57,41,99,-55
84,-43,-158,8,-54,42,104,-74
87,-51,-155,1,-60,34,107,-100
87,-47,-146,7,-53,41,107,-87
91,-47,-137,7,-57,56,100,-82
86,-49,-134,4,-54,37,106,-83
87,-49,-132,4,-56,32,109,-103
88,-45,-125,3,-57,41,101,-104
86,-49,-126,6,-53,38,105,-106
88,-49,-130,-5,-61,20,108,-108
84,-47,-138,7,-58,28,101,-89
81,-48,-147,7,-53,24,100,-81
85,-48,-151,5,-61,26,98,-55
85,-48,-153,5,-47,22,109,-51
89,-46,-158,3,-55,42,89,-64
87,-48,-150,3,-62,21,104,-67
82,-50,-133,1,-61,40,100,-69
90,-49,-107,4,-53,43,98,-64
90,-48,-88,2,-54,46,104,-62
92,-49,-87,5,-55,44,100,-83
93,-51,-99,2,-56,44,106,-113
84,-43,-112,-1,-58,47,91,-112
81,-50,-135,3,-61,34,98,-104
84,-53,-168,2,-57,19,104,-76
83,-51,-178,3,-55,34,104,-58
84,-45,-183,2,-57,10,104,-56
89,-50,-177,3,-53,16,105,-65
87,-50,-176,6,-56,13,102,-74
87,-48,-171,4,-62,27,99,-82
84,-47,-169,6,-54,20,101,-96
90,-51,-168,4,-56,19,106,-101
88,-47,-172,7,-55,37,103,-121
91,-41,-167,3,-54,31,107,-128
96,-55,-168,8,-52,29,105,-133
91,-48,-162,7,-51,54,107,-126
91,-47,-168,2,-56,44,94,-128
91,-52,-169,4,-61,31,107,-124
86,-48,-164,2,-54,35,106,-127
86,-48,-150,5,-52,45,107,-115
89,-47,-138,5,-46,28,103,-100
84,-53,-131,4,-59,30,108,-79
76,-52,-128,5,-52,50,90,-50
76,-49,-119,2,-55,52,101,-26
75,-53,-124,0,-60,54,103,-1
79,-52,-127,-1,-51,41,97,13
83,-46,-137,6,-54,60,100,17
78,-52,-133,2,-56,38,98,4
83,-52,-133,3,-53,30,98,-9
87,-47,-126,4,-56,22,91,-32
91,-49,-118,1,-60,23,104,-52
91,-54,-113,8,-49,13,106,-77
90,-49,-118,3,-55,15,104,-99
88,-46,-115,5,-52,33,100,-105
87,-45,-116,0,-57,27,100,-98
78,-53,-121,-2,-56,35,101,-72
82,-45,-119,4,-57,63,101,-52
85,-46,-112,5,-51,37,104,-58
96,-47,-102,10,-50,63,112,-69
95,-46,-95,4,-55,75,108,-76
93,-48,-105,4,-60,68,105,-66
86,-52,-113,2,-61,69,105,-62
85,-53,-123,-1,-60,50,100,-80
83,-47,-128,3,-53,35,112,-110
85,-50,-136,6,-52,8,112,-140
90,-49,-142,5,-55,-1,106,-135
80,-45,-158,7,-58,6,100,-141
76,-54,-164,4,-58,3,97,-139
81,-54,-177,-4,-60,0,96,-116
88,-48,-184,0,-49,9,103,-111
86,-49,-187,6,-51,23,101,-108
98,-49,-192,-1,-48,11,107,-117
93,-53,-201,5,-55,23,105,-79
96,-43,-204,7,-58,25,97,-39
94,-54,-198,3,-57,28,100,-30
91,-51,-181,1,-55,28,113,-10
97,-50,-164,6,-53,40,103,-3
94,-44,-147,2,-47,48,111,-16
94,-52,-140,5,-52,38,113,-30
92,-52,-142,-2,-54,47,101,-79
83,-51,-140,4,-58,40,106,-191
87,-49,-143,-2,-59,46,107,-305
85,-56,-141,1,-58,43,103,-318
84,-49,-138,6,-55,45,119,-244
87,-43,-134,3,-50,43,113,-89
82,-51,-136,6,-55,33,110,56
85,-50,-138,0,-61,15,96,113
72,-52,-144,4,-59,39,104,110
73,-45,-142,7,-54,41,109,80
74,-49,-151,6,-50,70,108,32
79,-45,-151,5,-52,64,103,-26
83,-48,-165,2,-65,48,100,-56
76,-51,-165,5,-55,26,99,-48
76,-47,-164,2,-54,20,95,-43
88,-47,-158,7,-55,21,110,-61
94,-50,-154,8,-48,7,108,-80
94,-48,-140,3,-53,24,109,-91
95,-46,-142,6,-54,25,106,-93
88,-49,-139,-1,-58,9,104,-91
88,-57,-142,0,-63,17,99,-80
87,-51,-160,4,-60,17,94,-85
93,-48,-178,1,-56,23,106,-81
94,-56,-195,3,-55,21,103,-72
93,-51,-211,0,-53,36,88,-59
95,-46,-208,0,-57,38,100,-38
87,-57,-202,3,-57,42,98,-46
91,-50,-190,6,-53,47,98,-66
90,-49,-154,8,-46,54,98,-80
86,-51,-126,5,-44,39,111,-105
85,-52,-115,4,-36,25,105,-114
83,-48,-108,2,-26,27,105,-116
81,-45,-110,0,-33,20,107,-133
76,-50,-116,0,-18,39,112,-216
75,-50,-127,4,3,29,111,-282
82,-45,-128,4,-7,55,108,-270
85,-45,-129,14,-32,39,118,-159
90,-51,-131,10,-65,33,106,-36
91,-40,-135,2,-89,38,109,31
87,-52,-142,5,-113,33,100,45
91,-52,-153,5,-119,24,103,18
91,-54,-152,1,-116,30,101,-13
102,-43,-156,1,-106,45,101,-47
111,-54,-149,4,-100,30,92,-80
111,-50,-147,5,-81,19,94,-111
110,-46,-141,-4,-76,42,81,-126
96,-52,-153,1,-71,26,74,-147
93,-52,-158,4,-60,9,77,-160
94,-48,-166,6,-54,16,79,-177
96,-48,-175,4,-50,15,80,-172
100,-46,-173,5,-45,18,93,-183
97,-53,-178,7,-48,12,94,-188
96,-46,-179,-6,-48,47,95,-177
89,-48,-180,-1,-48,43,97,-172
91,-51,-174,-4,-44,41,96,-203
93,-41,-179,1,-34,36,82,-202
79,-49,-175,-3,-25,60,90,-92
74,-52,-179,3,-13,73,85,74
63,-47,-179,2,7,118,92,131
57,-52,-188,3,24,151,102,124
56,-53,-185,5,12,164,98,95
53,-46,-184,8,-15,112,64,40
49,-44,-180,3,-48,63,45,-21
38,-56,-193,1,-71,36,39,-124
46,-53,-182,3,-104,9,76,-221
52,-52,-178,6,-115,26,147,-283
63,-51,-177,3,-116,23,192,-303
68,-52,-192,7,-104,6,182,-258
79,-51,-197,7,-93,-25,98,-123
84,-43,-197,8,-77,6,83,-42
89,-56,-200,-4,-73,4,95,15
98,-49,-188,8,-77,2,125,53
109,-43,-188,3,-82,0,134,16
117,-51,-173,2,-80,16,129,-13
122,-54,-162,7,-74,25,127,-11
119,-49,-152,1,-63,33,112,27
117,-44,-133,7,-57,42,92,76
117,-52,-135,4,-54,52,73,96
100,-53,-143,1,-49,26,65,82
91,-40,-158,5,-45,20,73,66
79,-47,-171,4,-42,30,70,52
76,-54,-187,5,-46,21,76,46
76,-48,-209,3,-49,31,63,15
89,-51,-220,1,-50,47,98,-30
115,-44,-223,4,-44,46,118,-78
134,-51,-224,3,-51,27,125,-155
144,-36,-213,4,-48,28,118,-226
140,-41,-205,3,-49,15,110,-293
119,-43,-197,3,-48,-13,96,-413
99,-40,-189,3,-45,0,118,-559
88,-39,-188,5,-46,15,184,-526
79,-50,-175,3,-45,56,208,-269
75,-47,-157,1,-42,76,186,-66
81,-50,-140,9,-50,72,155,54
81,-51,-129,4,-44,62,136,77
77,-64,-126,2,-55,37,101,34
71,-55,-129,2,-56,35,71,-16
47,-52,-136,7,-48,27,62,-71
29,-49,-152,-1,-50,8,71,-109
-3,-49,-166,6,-54,1,128,-130
-16,-45,-178,0,-54,3,149,-146
-21,-44,-174,3,-56,0,167,-96
11,-49,-187,4,-59,30,119,-78
78,-48,-191,2,-69,57,67,-32
134,-57,-174,2,-58,108,42,30
138,-68,-141,6,-62,103,50,53
127,-60,-102,1,-59,87,38,28
112,-71,-89,0,-66,76,90,-1
109,-68,-95,-1,-61,71,122,-32
107,-53,-117,-2,-63,56,124,-25
102,-49,-140,3,-59,64,128,55
76,-44,-187,2,-54,65,119,128
59,-50,-240,0,-58,61,132,148
73,-46,-273,1,-59,57,139,111
127,-47,-302,1,-59,42,115,34
159,-53,-316,-3,-60,16,82,-2
159,-48,-315,6,-56,-4,79,-14
153,-46,-300,0,-59,-7,81,-25
138,-44,-272,3,-50,16,92,-34
122,-51,-242,5,-51,-6,91,-38
104,-35,-216,1,-53,16,97,-47
86,-30,-195,3,-49,42,91,-67
68,-42,-179,5,-55,26,94,-87
64,-36,-171,4,-49,26,146,-83
57,-35,-168,5,-52,34,164,-85
69,-44,-157,4,-55,19,143,-75
76,-43,-153,3,-50,31,136,-60
82,-48,-149,4,-58,38,123,-49
78,-49,-147,3,-54,47,101,-51
74,-61,-154,7,-57,38,105,-53
60,-54,-148,1,-59,29,99,-60
49,-51,-157,0,-59,16,106,-62
50,-53,-156,5,-62,-5,93,-78
54,-49,-173,-1,-60,-40,96,-111
79,-41,-176,1,-60,-73,94,-150
90,-45,-179,2,-55,-71,89,-205
95,-44,-176,2,-43,-61,82,-278
100,-38,-171,-3,-33,-6,78,-300
115,-24,-163,4,-21,28,55,-287
121,-12,-163,1,-13,73,62,-246
146,11,-151,-3,0,105,73,-280
185,52,-157,1,9,135,82,-394
177,48,-158,8,53,157,100,-359
149,-61,-148,2,69,159,105,-316
122,-134,-158,3,5,132,99,-312
95,-155,-153,9,-90,67,85,-338
84,-134,-159,5,-172,1,86,-378
77,-84,-158,0,-196,-42,131,-416
60,-52,-159,5,-198,-32,197,-440
33,-40,-171,2,-172,11,217,-451
9,-35,-188,2,-144,73,189,-560
-15,-36,-189,0,-114,134,165,-515
-38,-49,-183,8,-85,147,75,-326
-30,-69,-184,0,-65,121,73,-90
-31,-61,-174,-4,-53,89,51,243
-17,-68,-176,1,-47,71,-27,513
64,-73,-192,4,-40,38,-7,584
97,-70,-191,3,-54,7,53,489
87,-58,-190,0,-63,-2,65,319
73,-59,-198,3,-79,-17,21,229
64,-61,-200,-1,-84,-27,-57,169
88,-44,-194,5,-82,9,-83,110
111,-42,-169,3,-67,16,-17,66
138,-30,-160,8,-58,30,30,77
166,-24,-145,8,-47,32,64,132
179,0,-141,3,-44,48,150,97
171,17,-140,3,-45,25,200,-5
167,41,-137,2,-37,10,186,-15
170,72,-129,4,-31,7,176,-9
164,59,-127,4,-29,25,151,-16
141,-36,-122,5,-31,35,132,-72
114,-118,-116,2,-39,42,104,-175
84,-134,-116,0,-41,63,138,-264
70,-133,-133,-2,-54,60,209,-302
63,-120,-155,4,-42,63,242,-368
53,-95,-188,-3,-48,60,188,-466
4,-77,-219,2,-51,46,157,-525
-39,-72,-241,2,-56,30,162,-477
-50,-63,-257,1,-60,10,183,-402
-28,-64,-258,-5,-58,19,140,-436
8,-70,-262,1,-56,34,80,-518
34,-72,-242,-6,-47,59,24,-233
80,-59,-220,3,-25,71,-12,170
152,-56,-202,2,6,78,-57,522
204,-57,-190,10,59,64,-22,625
206,-50,-178,-2,45,3,56,527
166,-51,-177,-4,-34,-33,72,411
122,-47,-183,4,-105,-4,77,302
105,-42,-191,6,-137,9,93,243
103,-38,-216,6,-140,49,144,236
104,-34,-222,5,-129,42,234,232
107,-41,-235,1,-121,5,307,240
106,-30,-223,1,-96,-9,291,268
115,-26,-206,1,-83,-44,232,244
116,-2,-172,6,-73,-60,164,121
119,25,-133,4,-67,-18,25,-83
108,43,-125,6,-68,123,-83,-333
99,5,-127,-4,-65,292,-93,-493
87,-82,-124,-2,-67,403,-38,-529
83,-110,-128,0,-58,452,-36,-591
73,-58,-134,-1,-47,394,-104,-726
63,33,-132,0,-33,240,-161,-986
61,148,-117,6,-25,70,-50,-1312
69,160,-125,-2,7,-116,173,-1380
79,89,-129,1,13,-255,323,-1318
71,-45,-149,-4,-8,-261,557,-1400
67,-126,-178,-1,-25,-123,755,-1540
86,-241,-199,-1,-45,-4,594,-1237
125,-290,-212,0,-57,87,300,-244
139,-243,-193,10,-51,87,75,1004
110,-187,-164,4,-61,12,-14,1675
50,-119,-141,7,-96,-74,-21,1621
13,-75,-120,2,-103,-196,29,1291
32,-51,-108,3,-120,-235,115,950
67,-43,-102,5,-116,-198,175,670
109,-35,-99,3,-100,-136,225,492
133,-28,-84,13,-98,-89,190,595
128,-36,-92,3,-98,-50,106,691
100,-42,-108,-4,-92,-33,84,594
93,-37,-117,3,-89,-34,97,383
111,-41,-127,4,-69,-4,126,234
103,-40,-134,2,-50,-13,47,159
101,-40,-152,3,-46,-23,-71,99
87,-30,-170,2,-38,-1,-138,13
80,-41,-202,-1,-25,73,-52,-130
84,-36,-215,-3,2,161,19,-293
101,-34,-216,0,39,250,69,-374
102,-32,-218,3,72,293,154,-459
109,-40,-225,-3,107,302,249,-577
94,-38,-225,1,239,262,276,-759
62,-36,-236,-2,311,326,136,-904
10,-48,-231,-1,154,425,31,-898
-10,-54,-214,0,-100,531,96,-455
1,-56,-193,-1,-286,533,22,-14
12,-86,-206,6,-363,409,-46,358
32,-76,-208,5,-338,219,42,573
77,158,-197,8,-276,99,184,568
127,162,-192,3,-199,-74,227,410
133,75,-171,4,-114,-348,228,190
129,-23,-131,1,-49,-569,224,58
127,-91,-92,6,23,-724,145,-44
122,-139,-58,9,28,-811,-23,-98
114,-155,-26,3,-37,-712,-171,-16
100,-144,-18,2,-61,-525,-166,22
83,-140,-36,0,-89,-154,-43,-32
76,-128,-63,-5,-149,238,11,-115
83,-104,-93,2,-212,515,77,-143
83,-84,-120,2,-230,658,96,-211
88,-69,-148,-1,-216,601,55,-10
90,-57,-161,5,-172,434,42,193
90,-58,-175,-3,-142,238,35,230
91,-46,-169,2,-103,88,58,191
91,-54,-167,-2,-77,-20,77,200
98,-39,-158,2,-51,-115,114,156
103,-35,-147,3,-45,-149,121,121
96,-37,-145,4,-34,-140,148,99
93,-40,-147,3,-39,-123,174,109
90,-42,-159,3,-35,-87,140,98
85,-39,-160,3,-41,-69,85,61
76,-42,-157,1,-30,-42,115,6
91,-36,-143,10,-18,-28,127,-48
94,-33,-136,7,-9,-1,134,-85
93,-32,-137,3,-17,10,164,-87
84,-43,-145,5,-16,38,178,-66
85,-33,-150,1,-20,53,196,-62
80,-37,-156,5,-6,110,213,-64
93,-41,-155,4,6,120,270,-93
96,-37,-159,4,20,71,297,-81
98,-26,-162,7,20,34,263,-77
93,-42,-164,4,25,8,135,-67
92,-41,-172,4,4,-36,11,-53
87,-41,-167,1,-23,-15,57,-29
87,-45,-149,4,-30,10,36,-58
88,-45,-138,0,-12,95,64,-120
92,-37,-147,-1,22,209,32,-146
92,-40,-161,7,7,257,-129,-164
95,-49,-187,5,-44,269,-149,-185
93,-46,-194,2,-92,265,-80,-232
88,-36,-218,4,-109,234,36,-272
84,-50,-221,2,-51,71,204,-332
88,-46,-212,5,16,-99,288,-376
89,-46,-194,-1,-17,-94,312,-520
93,-42,-169,1,-99,-35,306,-630
88,-50,-154,1,-162,70,301,-684
87,-54,-130,-4,-199,208,227,-612
87,-43,-109,2,-206,313,14,-517
90,-49,-77,7,-183,281,-85,-383
92,-52,-55,4,-157,140,-82,16
88,-44,-49,0,-128,-32,-20,373
86,-51,-43,7,-84,-167,11,412
82,-53,-55,2,-38,-259,43,300
84,-49,-89,2,-7,-303,84,201
90,-49,-112,7,37,-301,102,69
95,-51,-120,6,71,-254,97,12
88,-47,-127,4,95,-199,84,14
87,-50,-141,-1,59,-134,89,15
85,-55,-139,3,-34,-65,83,-14
82,-51,-150,3,-129,-37,88,-35
89,-49,-157,3,-164,7,78,-32
88,-48,-170,7,-169,42,90,-33
90,-51,-181,6,-149,55,95,-13
95,-49,-186,7,-121,61,90,-5
86,-50,-183,3,-107,73,87,-15
84,-51,-167,6,-91,64,95,-35
82,-53,-157,4,-70,68,99,-50
91,-52,-150,6,-49,76,137,-58
87,-49,-148,0,-3,144,177,-63
89,-53,-159,5,44,222,208,-76
84,-51,-177,2,105,349,224,-91
81,-51,-188,0,152,605,222,-118
86,-55,-194,2,179,828,229,-140
87,-55,-205,5,170,867,230,-125
88,-53,-203,2,121,792,214,-122
87,-53,-188,-3,122,734,133,-114
82,-52,-168,0,15,681,-88,-128
87,-49,-152,2,-126,398,-391,-139
87,-49,-134,-2,-167,-138,-484,-117
95,-49,-131,2,-84,-717,-384,-91
91,-48,-140,6,157,-989,-263,-105
85,-42,-138,23,273,-865,-120,-139
87,-51,-142,22,125,-696,37,-190
88,-51,-170,9,-87,-452,95,-234
93,-48,-203,12,-299,-229,136,-283
87,-44,-232,13,-441,-146,237,-288
92,-54,-246,2,-423,-111,357,-320
88,-50,-210,3,-361,-100,390,-306
88,-48,-157,-9,-344,-157,321,-258
91,-57,-128,-8,-312,-240,259,-218
99,-52,-116,-16,-258,-307,204,-108
91,-48,-91,-17,-207,-328,186,-25
89,-51,-70,-17,-216,-296,167,58
84,-59,-64,-8,-231,-250,152,118
84,-57,-82,-5,-241,-155,148,106
84,-49,-96,30,-231,-3,135,48
91,-52,-83,27,-192,167,124,1
89,-51,-32,18,-155,326,123,19
86,-46,6,9,-102,434,127,51
86,-51,3,-5,-25,476,153,37
76,-52,-50,-16,85,363,157,-31
77,-52,-175,-5,250,113,162,-75
73,-53,-310,6,459,-88,173,-85
79,-55,-403,52,563,-194,169,-85
80,-50,-426,70,539,-259,176,-114
81,-51,-398,48,374,-67,176,-181
82,-56,-347,6,162,174,154,-224
74,-50,-274,-25,77,307,121,-215
84,-43,-203,-38,52,401,32,-191
90,-45,-143,-48,-175,488,-20,-137
88,-45,-102,-43,-409,514,-12,-135
89,-40,-87,-37,-598,413,43,-200
91,-46,-68,-32,-673,236,136,-247
84,-50,-38,-24,-631,60,183,-266
89,-43,37,-13,-587,-35,182,-94
93,-42,119,-9,-505,-80,164,48
89,-44,145,-7,-342,-149,152,190
90,-45,79,-3,-199,-303,151,196
85,-50,-60,2,-80,-388,142,126
86,-40,-202,5,-11,-422,144,71
89,-51,-289,12,0,-393,128,10
83,-46,-313,26,-43,-289,134,-26
85,-48,-321,21,37,-193,142,-67
83,-50,-283,12,139,-109,172,-66
93,-46,-238,2,135,-56,191,-62
89,-49,-210,0,86,-15,130,-60
83,-52,-203,-3,81,16,23,-53
89,-51,-207,-3,91,30,12,-59
84,-50,-216,5,106,45,57,-74
91,-50,-206,7,109,85,84,-80
91,-50,-182,9,92,85,99,-87
96,-46,-166,6,104,117,95,-89
89,-50,-158,5,165,176,96,-82
86,-44,-172,5,268,319,82,-83
90,-51,-192,-2,393,500,96,-89
90,-43,-180,6,469,647,121,-81
89,-50,-165,5,581,643,156,-84
88,-48,-149,23,664,417,196,-72
90,-45,-131,53,585,-31,231,-59
86,-45,-109,53,403,-408,262,-26
92,-51,-116,36,55,-479,242,-22
87,-43,-120,12,-317,-371,196,0
89,-49,-113,-12,-630,-167,151,28
90,-45,-106,-16,-854,59,56,24
99,-46,-106,-23,-962,276,-59,29
98,-40,-114,-21,-938,361,-261,24
98,-47,-120,-19,-822,360,-375,-21
96,-44,-114,-14,-680,294,-405,-162
88,-42,-108,-14,-527,217,-247,-327
87,-46,-102,-10,-395,122,-63,-446
85,-44,-103,-6,-268,-24,125,-524
80,-52,-134,0,-152,-131,281,-479
80,-48,-163,-1,-57,-184,337,-493
81,-43,-183,3,12,-201,321,-442
75,-51,-203,4,66,-191,245,-268
73,-51,-223,-3,85,-171,193,-112
62,-51,-229,4,101,-152,157,50
65,-47,-236,4,97,-131,146,183
73,-46,-238,4,89,-124,129,216
74,-45,-244,6,55,-97,122,136
76,-44,-243,9,50,-58,110,33
77,-57,-242,8,93,-40,111,2
86,-51,-235,5,116,-13,113,-18
85,-46,-223,11,107,17,114,-31
92,-44,-219,11,84,30,111,-35
88,-51,-211,9,57,35,116,-57
88,-44,-199,6,33,41,108,-65
88,-46,-197,9,6,46,109,-73
92,-54,-196,5,-1,51,120,-70
85,-45,-206,3,-17,41,113,-69
92,-51,-213,2,-23,61,105,-64
90,-48,-207,2,-35,48,108,-69
88,-51,-200,-1,-40,48,114,-72
88,-45,-195,-1,-42,57,106,-67
90,-50,-193,1,-48,52,115,-70
90,-49,-201,-3,-51,41,103,-73
86,-51,-200,0,-52,46,108,-77
88,-45,-190,3,-54,43,109,-74
90,-52,-165,4,-54,47,105,-81
88,-52,-121,4,-53,46,104,-72
87,-52,-53,-1,-58,46,99,-78
85,-54,-28,-1,-61,46,104,-78
84,-49,-61,3,-59,44,111,-75
84,-47,-109,0,-62,54,103,-77
87,-50,-154,0,-60,54,102,-74
86,-50,-195,7,-66,34,108,-78
84,-50,-208,3,-67,53,105,-74
83,-48,-202,-1,-66,42,102,-81
80,-50,-187,5,-73,44,118,-72
92,-44,-169,4,-66,37,102,-76
92,-45,-158,2,-54,51,110,-79
90,-42,-160,4,-56,36,104,-80
85,-53,-169,-1,-60,39,103,-83
83,-55,-179,-1,-61,49,100,-82
81,-45,-181,3,-61,38,99,-82
91,-56,-185,-3,-58,34,104,-79
88,-46,-185,8,-62,42,104,-83
89,-47,-194,0,-63,44,101,-80
84,-50,-199,-3,-66,31,96,-85
85,-55,-197,-1,-67,32,102,-84
79,-51,-182,-1,-69,46,97,-81
86,-48,-161,-8,-65,38,103,-99
92,-52,-141,2,-61,30,109,-102
96,-44,-134,2,-65,44,110,-95
92,-43,-138,-2,-62,39,102,-90
91,-52,-152,5,-71,29,98,-79
88,-53,-183,1,-66,34,99,-72
90,-45,-246,4,-62,40,101,-76
95,-48,-271,18,-64,24,102,-74
95,-54,-276,26,-61,31,110,-69
96,-46,-257,37,-61,28,109,-74
91,-44,-237,31,-61,29,97,-80
89,-52,-206,15,-42,22,102,-97
90,-48,-164,-10,-19,28,110,-98
97,-42,-144,-11,-9,31,110,-98
97,-44,-135,-24,-25,28,105,-76
88,-50,-125,-22,-52,22,100,-63
86,-48,-101,-17,-67,34,97,-60
80,-51,-64,-16,-76,32,100,-67
82,-48,-41,-11,-76,24,109,-77
83,-49,-67,-4,-77,42,115,-76
84,-48,-122,-2,-75,30,109,-85
80,-50,-185,0,-84,36,98,-99
73,-48,-220,0,-83,31,100,-103
73,-49,-237,1,-82,36,102,-103
80,-51,-226,3,-88,32,97,-93
80,-58,-206,2,-78,31,109,-72
85,-54,-188,4,-72,38,99,-73
87,-49,-174,2,-63,24,95,-70
82,-51,-167,2,-61,32,99,-77
84,-47,-162,3,-62,29,99,-82
83,-49,-155,5,-63,26,106,-86
85,-48,-149,2,-63,33,99,-87
90,-53,-145,5,-57,32,118,-83
89,-48,-146,3,-32,25,103,-82
90,-45,-144,9,-11,36,110,-80
89,-51,-141,0,-9,36,104,-81
94,-45,-137,5,-27,29,117,-70
97,-44,-138,11,-40,34,105,-72
91,-45,-132,5,-55,44,113,-72
91,-48,-135,9,-66,42,113,-79
86,-45,-135,9,-67,52,99,-89
83,-52,-133,5,-75,37,101,-117
83,-57,-136,1,-72,38,100,-122
85,-52,-135,3,-70,41,108,-109
87,-52,-142,3,-74,41,99,-85
83,-52,-150,0,-74,28,96,-59
87,-53,-157,2,-70,41,102,-62
89,-48,-160,-2,-67,32,99,-111
86,-51,-169,5,-65,31,102,-155
92,-49,-181,-1,-64,33,105,-109
86,-54,-188,2,-62,38,97,-44
86,-46,-199,6,-59,39,112,-2
90,-46,-201,-2,-57,28,99,-9
92,-53,-217,5,-54,43,105,-43
86,-45,-228,3,-56,41,101,-66
88,-44,-238,4,-55,47,95,-71
86,-51,-229,4,-54,53,103,-78
86,-50,-219,6,-45,58,103,-88
87,-44,-208,1,-32,56,109,-70
87,-49,-192,5,-14,44,104,-59
89,-50,-191,3,-21,46,112,-79
87,-49,-188,2,-17,51,94,-110
88,-52,-187,0,-9,42,111,-100
87,-50,-178,1,-20,47,105,-92
91,-46,-178,5,-34,49,113,-90
96,-44,-173,5,-49,54,110,-77
94,-53,-174,-1,-67,53,101,-72
83,-51,-183,3,-81,42,98,-70
81,-49,-186,-3,-85,44,98,-68
81,-52,-186,1,-59,45,100,-65
79,-56,-182,-3,-30,42,108,-75
88,-43,-188,5,-8,43,104,-76
89,-53,-195,6,-21,47,103,-73
83,-51,-196,-1,-43,45,102,-82
78,-53,-197,2,-60,43,94,-82
86,-43,-185,-1,-72,42,105,-80
83,-53,-172,5,-71,45,104,-81
90,-55,-165,2,-78,39,101,-84
93,-46,-161,6,-75,52,112,-78
85,-50,-148,5,-77,33,109,-80
94,-56,-141,-4,-72,43,106,-74
88,-43,-145,6,-67,55,113,-75
91,-43,-166,3,-68,50,102,-87
87,-51,-196,9,-62,40,113,-99
88,-50,-229,2,-61,61,104,-108
88,-42,-254,5,-59,40,96,-89
84,-52,-258,4,-60,53,102,-69
83,-55,-244,1,-57,52,97,-58
79,-48,-226,2,-58,56,94,-65
81,-47,-174,2,-56,39,101,-65
85,-52,-135,2,-50,57,99,-77
83,-57,-115,0,-47,50,98,-83
82,-44,-100,0,-46,52,105,-79
87,-49,-64,1,-45,40,96,-80
88,-51,-9,-1,-42,37,102,-80
88,-45,26,4,-42,54,102,-79
89,-52,22,3,-48,30,96,-80
90,-53,-8,3,-45,44,108,-75
91,-44,-49,2,-46,46,99,-84
87,-47,-86,3,-51,36,100,-80
85,-52,-108,0,-50,37,107,-76
90,-49,-128,6,-51,40,102,-80
86,-48,-134,4,-51,46,100,-77
88,-46,-144,2,-53,42,107,-76
82,-52,-155,3,-54,38,103,-76
90,-48,-157,1,-47,43,106,-76
84,-45,-164,1,-55,49,103,-77
88,-50,-159,2,-54,45,100,-82
85,-57,-160,0,-44,43,101,-75
89,-44,-151,0,-45,60,111,-78
91,-48,-144,6,-46,42,111,-73
87,-50,-141,1,-37,49,100,-99
87,-46,-141,-1,-4,43,102,-90
89,-44,-142,7,11,35,109,-85
85,-53,-157,2,5,36,100,-72
86,-48,-168,0,-25,43,104,-54
87,-41,-175,1,-44,41,111,-55
90,-45,-168,9,-60,41,108,-80
97,-49,-170,6,-69,35,107,-117
92,-44,-174,5,-73,40,109,-104
86,-46,-179,0,-90,25,98,-97
85,-53,-184,-3,-89,40,102,-88
84,-51,-186,4,-81,32,105,-101
89,-45,-196,2,-78,47,108,-110
91,-50,-201,2,-72,41,111,-114
94,-51,-215,5,-74,50,100,-89
85,-48,-214,3,-74,37,99,-52
78,-49,-207,-2,-73,42,100,-40
82,-60,-208,0,-68,36,91,-35
82,-51,-190,4,-40,32,107,-54
88,-48,-174,0,-31,42,102,-39
88,-48,-159,4,-43,32,101,-38
87,-47,-151,6,-52,27,108,-48
88,-42,-136,2,-66,38,102,-78
88,-50,-115,0,-69,31,103,-96
89,-52,-106,-2,-78,36,104,-99
87,-44,-90,5,-71,43,102,-95
90,-46,-77,3,-75,33,110,-99
92,-43,-78,2,-74,34,104,-96
87,-51,-93,5,-71,43,107,-85
89,-42,-120,-1,-75,36,103,-86
85,-54,-140,2,-68,25,92,-75
81,-49,-158,-2,-58,32,100,-69
85,-51,-162,-1,-44,42,103,-62
90,-43,-165,1,-32,42,98,-81
89,-59,-166,2,-28,26,102,-93
85,-43,-169,6,-41,40,98,-104
86,-49,-175,-1,-61,25,97,-92
80,-53,-179,-3,-76,28,96,-79
78,-52,-185,-2,-78,32,100,-62
83,-46,-183,5,-75,36,101,-60
90,-41,-187,4,-75,35,105,-61
92,-54,-186,3,-73,33,101,-69
87,-43,-186,6,-71,33,105,-79
83,-52,-177,4,-77,32,95,-77
79,-53,-165,-1,-74,18,104,-78
84,-48,-154,6,-66,39,109,-98
90,-40,-145,4,-68,28,107,-103
91,-53,-131,1,-57,33,113,-94
91,-48,-124,7,-61,17,106,-70
90,-44,-124,2,-63,33,107,-53
85,-48,-126,8,-63,40,101,-53
83,-52,-133,3,-64,33,98,-65
87,-50,-153,2,-62,23,107,-129
84,-49,-161,5,-54,31,105,-123
90,-51,-154,2,-56,32,94,-108
92,-50,-145,6,-51,47,105,-102
91,-47,-128,4,-57,43,105,-89
85,-51,-118,2,-64,34,100,-81
86,-47,-111,2,-56,39,104,-101
91,-44,-122,6,-57,41,104,-98
86,-46,-126,1,-54,22,112,-60
91,-51,-152,-1,-56,38,105,-21
85,-44,-178,8,-58,37,106,-18
81,-43,-188,-1,-62,37,101,-24
81,-54,-198,3,-60,38,97,-51
86,-51,-202,-4,-59,31,102,-58
82,-45,-204,3,-57,24,100,-77
92,-49,-192,3,-52,35,105,-98
86,-50,-197,3,-56,28,103,-106
87,-47,-197,6,-62,24,105,-89
89,-46,-198,-1,-65,31,98,-65
86,-58,-188,4,-53,28,100,-75
84,-49,-185,-2,-53,44,97,-119
88,-48,-178,6,-46,34,100,-108
91,-49,-171,4,-40,33,111,-92
93,-50,-164,1,-46,34,105,-80
89,-43,-162,5,-51,40,101,-49
90,-47,-160,-1,-51,32,101,-41
86,-54,-156,2,-56,35,105,-49
92,-46,-153,5,-54,39,100,-58
91,-40,-157,4,-53,37,100,-65
86,-49,-162,5,-59,42,98,-64
87,-47,-168,4,-53,38,97,-71
86,-45,-183,5,-59,34,99,-62
87,-49,-193,4,-60,49,98,-66
87,-48,-195,6,-54,28,103,-73
90,-46,-185,5,-51,41,94,-81
90,-42,-171,5,-50,37,95,-90
91,-54,-165,4,-63,43,79,-82
81,-47,-154,0,-58,35,93,-91
85,-49,-139,1,-63,28,101,-85
85,-54,-128,2,-57,31,122,-76
90,-49,-118,5,-56,39,123,-79
90,-45,-112,4,-48,41,127,-77
97,-46,-117,7,-58,41,111,-67
86,-53,-110,1,-56,37,108,-46
85,-46,-110,-1,-65,28,106,-50
81,-44,-107,1,-57,39,86,-45
83,-49,-104,5,-58,42,107,-83
87,-50,-118,9,-51,39,105,-96
93,-40,-123,6,-50,38,105,-97
92,-44,-140,4,-55,43,102,-93
85,-53,-153,4,-56,42,96,-74
88,-44,-164,5,-54,44,98,-74
85,-44,-178,3,-59,46,105,-75
89,-49,-184,3,-55,33,99,-74
92,-48,-199,7,-47,51,107,-69
97,-42,-210,3,-52,42,104,-66
88,-48,-219,4,-52,33,105,-60
86,-55,-225,0,-62,42,101,-67
82,-46,-226,6,-57,31,94,-73
91,-49,-213,3,-56,24,99,-62
86,-53,-196,2,-50,34,110,-71
94,-46,-186,10,-54,33,103,-68
84,-39,-174,4,-58,31,96,-74
82,-53,-166,3,-56,30,102,-77
82,-47,-164,0,-60,40,100,-75
83,-46,-160,3,-54,35,105,-77
89,-42,-163,7,-48,32,100,-74
91,-50,-157,4,-45,45,111,-71
90,-45,-165,6,-52,36,104,-80
88,-46,-170,7,-53,36,101,-75
85,-51,-174,5,-54,43,104,-71
93,-46,-181,6,-49,38,102,-73
90,-43,-175,7,-55,44,108,-74
92,-46,-172,4,-53,31,103,-69
90,-51,-167,4,-58,34,95,-77
83,-50,-163,5,-54,36,99,-76
91,-46,-158,3,-50,36,107,-71
94,-50,-165,8,-55,37,101,-73
90,-46,-162,5,-55,44,98,-78
85,-44,-160,5,-52,39,103,-74
86,-49,-156,4,-59,41,97,-75
85,-48,-150,1,-57,39,111,-73
95,-44,-135,9,-46,38,94,-80
96,-48,-129,9,-53,47,116,-79
97,-49,-124,6,-51,40,108,-82
89,-47,-138,8,-61,39,99,-89
85,-43,-154,5,-56,40,99,-90
85,-50,-175,-1,-56,34,98,-78
86,-48,-187,6,-53,43,101,-73
87,-40,-189,8,-51,49,101,-70
87,-45,-180,4,-52,44,106,-69
87,-53,-176,2,-58,39,100,-71
81,-48,-174,4,-60,43,95,-82
81,-45,-141,3,-61,30,97,-91
83,-53,-129,0,-56,34,98,-85
83,-50,-125,5,-52,42,103,-88
91,-43,-118,7,-58,40,104,-80
86,-52,-123,-1,-53,26,102,-79
86,-60,-129,-2,-55,28,97,-68
81,-44,-137,2,-63,24,100,-76
85,-51,-139,0,-49,32,109,-73
92,-53,-135,4,-48,42,109,-68
90,-41,-132,9,-51,30,112,-72
93,-42,-137,5,-52,33,103,-73
85,-49,-146,1,-53,38,100,-76
88,-49,-153,6,-56,32,103,-75
89,-44,-154,5,-53,38,99,-78
87,-45,-161,5,-56,26,101,-75
90,-49,-161,0,-51,47,108,-77
87,-31,-167,10,-54,30,100,-76
87,-56,-172,3,-50,37,108,-78
87,-48,-170,-4,-61,28,99,-80
89,-49,-173,7,-56,34,99,-76
85,-48,-171,1,-60,48,96,-80
80,-55,-168,-3,-58,37,107,-77
90,-52,-162,2,-48,44,108,-73
94,-41,-151,3,-56,44,109,-78
89,-51,-172,-2,-56,34,99,-79
86,-58,-189,-2,-60,40,97,-80
77,-51,-196,3,-61,40,94,-83
82,-50,-195,-2,-42,33,93,-74
90,-49,-190,4,-21,35,115,-72
90,-47,-184,3,-19,38,100,-75
92,-45,-192,11,-20,33,102,-74
89,-46,-192,2,-36,29,96,-77
83,-51,-199,1,-49,40,96,-83
77,-51,-192,5,-65,32,95,-76
87,-48,-190,8,-69,43,111,-76
97,-50,-200,0,-62,49,106,-73
91,-45,-204,5,-80,30,108,-72
91,-45,-203,2,-80,40,95,-67
85,-50,-197,0,-81,23,94,-78
84,-53,-189,0,-81,39,98,-79
78,-47,-176,4,-77,39,101,-80
88,-46,-160,5,-70,39,106,-73
96,-50,-140,3,-60,53,101,-77
95,-45,-141,8,-61,28,107,-75
90,-47,-135,1,-67,27,97,-72
83,-54,-130,1,-70,41,91,-91
80,-50,-126,1,-67,37,101,-98
85,-45,-109,8,-57,31,101,-85
89,-44,-92,2,-57,38,96,-82
91,-50,-93,1,-52,46,106,-59
87,-45,-107,3,-64,35,94,-60
83,-49,-122,2,-61,32,96,-69
80,-55,-141,2,-54,45,104,-65
90,-45,-155,7,-57,36,98,-71
90,-46,-160,11,-52,37,110,-71
88,-44,-167,1,-53,39,103,-76
85,-51,-172,0,-57,32,101,-93
82,-44,-172,1,-56,37,93,-93
83,-50,-164,1,-53,31,106,-88
91,-51,-160,5,-47,37,99,-72
88,-46,-156,4,-49,30,97,-55
88,-49,-153,6,-51,25,98,-45
85,-56,-158,2,-55,43,108,-55
85,-48,-142,2,-50,32,97,-81
82,-46,-136,6,-52,35,97,-104
88,-50,-132,-1,-48,26,104,-99
86,-55,-143,0,-52,41,111,-97
85,-43,-146,4,-57,15,98,-90
85,-48,-147,7,-54,35,101,-88
87,-49,-145,4,-51,40,101,-113
88,-44,-135,6,-45,43,106,-112
92,-41,-140,7,-55,48,103,-88
86,-50,-146,5,-54,41,97,-44
84,-50,-151,1,-55,40,101,-15
86,-46,-157,3,-57,41,91,-11
86,-44,-157,2,-53,34,106,-44
92,-49,-154,1,-50,49,110,-75
86,-49,-129,6,-51,31,99,-86
88,-47,-106,3,-53,45,102,-97
86,-50,-91,1,-54,38,102,-85
85,-48,-91,4,-62,29,99,-65
84,-49,-99,-2,-61,34,99,-54
85,-49,-115,2,-54,19,107,-71
86,-51,-153,-3,-53,28,105,-107
82,-47,-181,5,-64,23,92,-106
85,-51,-191,-1,-56,25,99,-103
81,-53,-192,0,-55,32,99,-91
80,-52,-196,2,-62,29,104,-76
84,-44,-189,1,-47,25,103,-57
86,-55,-186,1,-30,40,106,-64
86,-51,-181,1,-26,33,104,-57
91,-39,-183,6,-28,39,108,-58
86,-47,-197,-3,-34,30,93,-66
84,-57,-207,-3,-46,35,97,-93
80,-45,-208,6,-58,37,106,-77
91,-49,-198,6,-57,39,110,-73
96,-45,-181,9,-67,47,112,-69
95,-49,-177,9,-72,43,111,-83
85,-45,-177,4,-85,30,92,-75
78,-55,-171,0,-83,37,99,-82
83,-52,-157,4,-76,37,108,-79
88,-46,-147,10,-70,39,100,-71
95,-45,-143,4,-65,28,108,-73
90,-44,-148,7,-69,42,107,-75
87,-52,-155,2,-72,34,100,-81
85,-45,-156,9,-70,35,97,-89
83,-50,-157,4,-63,31,107,-92
85,-52,-153,3,-64,35,97,-94
84,-50,-139,1,-65,31,97,-84
81,-44,-126,7,-68,36,104,-85
82,-50,-121,2,-63,31,95,-76
84,-49,-114,3,-61,36,102,-78
85,-48,-101,3,-59,33,108,-77
88,-49,-104,-1,-57,31,96,-73
88,-48,-95,4,-59,33,101,-75
85,-49,-91,7,-58,25,109,-74
88,-47,-81,4,-53,33,110,-75
94,-50,-74,-1,-55,40,105,-70
88,-51,-73,8,-58,24,107,-72
90,-41,-66,7,-56,48,98,-72
91,-49,-84,3,-56,40,117,-75
85,-52,-97,5,-54,41,104,-81
97,-38,-105,9,-48,49,106,-81
95,-46,-127,5,-54,35,107,-80
88,-47,-152,2,-60,42,102,-76
79,-47,-177,3,-63,26,95,-69
83,-44,-184,1,-56,43,104,-69
85,-53,-194,5,-57,35,108,-73
85,-41,-196,5,-54,30,101,-78
87,-47,-206,7,-53,28,103,-77
93,-51,-216,7,-61,45,100,-81
86,-55,-221,8,-55,34,108,-75
88,-40,-221,6,-57,31,102,-78
85,-53,-213,8,-54,43,103,-83
82,-49,-196,1,-58,31,107,-77
85,-49,-184,2,-60,37,93,-74
88,-46,-168,4,-54,37,98,-74
87,-49,-157,3,-55,32,113,-77
86,-48,-154,0,-58,33,98,-82
86,-49,-146,1,-60,32,92,-90
80,-53,-140,0,-58,45,103,-85
83,-53,-131,1,-63,19,102,-82
86,-45,-116,3,-53,44,105,-78
91,-44,-120,6,-57,37,103,-77
90,-44,-118,5,-55,45,103,-83
87,-47,-134,4,-62,36,94,-73
83,-47,-144,4,-63,35,89,-81
83,-48,-154,3,-59,36,113,-80
90,-49,-170,4,-56,31,104,-73
88,-47,-181,3,-58,36,102,-79
89,-45,-189,6,-56,31,103,-77
88,-50,-194,4,-58,32,95,-77
86,-48,-194,-3,-59,28,100,-73
83,-55,-188,1,-58,36,96,-78
85,-50,-183,-2,-66,33,98,-73
84,-46,-176,1,-55,25,102,-69
85,-46,-164,3,-57,36,105,-82
88,-49,-160,0,-59,45,106,-88
92,-56,-165,4,-55,33,109,-91
84,-41,-180,-1,-62,40,91,-101
81,-56,-198,-1,-58,38,107,-106
83,-51,-221,0,-63,31,100,-80
85,-43,-228,4,-55,33,108,-83
83,-44,-234,6,-55,33,104,-64
86,-51,-217,5,-57,39,111,-66
91,-48,-206,5,-57,35,106,-94
87,-50,-181,1,-60,35,111,-119
84,-48,-152,2,-62,44,100,-113
85,-54,-144,1,-62,39,110,-67
88,-45,-132,0,-59,37,106,-34
84,-48,-128,3,-63,38,102,-20
81,-53,-129,-1,-61,33,108,-16
83,-53,-119,0,-63,33,100,-34
86,-46,-110,1,-61,25,102,-55
87,-49,-106,1,-55,50,114,-78
88,-51,-103,3,-62,22,105,-95
86,-49,-109,5,-59,28,105,-96
87,-53,-119,2,-61,37,99,-98
83,-53,-121,1,-67,33,105,-114
81,-47,-126,4,-56,30,100,-120
84,-41,-132,-1,-56,42,103,-106
90,-51,-130,3,-58,39,111,-83
91,-44,-140,4,-52,24,107,-65
90,-48,-146,3,-57,34,97,-52
87,-51,-154,5,-60,32,99,-55
84,-53,-166,-2,-61,40,96,-62
80,-47,-166,8,-66,22,100,-71
85,-51,-167,0,-55,32,99,-80
86,-49,-157,3,-61,36,100,-92
86,-44,-158,2,-62,33,105,-78
88,-53,-162,-1,-57,23,93,-85
83,-49,-172,2,-61,43,94,-83
86,-52,-187,2,-62,27,100,-75
79,-45,-191,5,-53,44,101,-76
87,-58,-186,-2,-60,38,96,-77
91,-50,-187,7,-57,40,106,-77
92,-46,-186,2,-58,27,96,-73
83,-49,-192,3,-61,41,103,-83
83,-55,-202,-1,-53,38,104,-77
87,-44,-208,5,-57,40,108,-75
93,-47,-212,6,-55,36,107,-81
90,-46,-226,3,-57,46,104,-85
90,-49,-236,5,-55,45,100,-84
81,-45,-236,3,-63,40,95,-86
81,-51,-225,-3,-60,27,101,-69
86,-51,-203,8,-59,42,107,-54
90,-41,-192,10,-48,37,114,-50
94,-46,-172,5,-52,34,95,-66
89,-47,-165,3,-56,47,98,-96
84,-53,-153,2,-68,28,82,-98
78,-41,-141,1,-60,36,85,-97
87,-55,-125,7,-58,39,104,-95
86,-45,-112,5,-55,48,115,-87
92,-43,-109,4,-51,36,139,-77
94,-51,-104,-2,-56,30,119,-66
88,-53,-99,3,-61,36,117,-61
82,-49,-101,-7,-67,26,106,-73
81,-50,-112,1,-63,35,97,-83
84,-50,-127,2,-58,36,98,-98
94,-51,-142,-2,-57,29,105,-101
92,-45,-162,1,-54,41,92,-103
90,-49,-175,2,-58,30,90,-88
79,-52,-193,-1,-64,26,89,-74
82,-48,-196,4,-61,32,94,-66
83,-51,-193,5,-55,43,97,-51
94,-47,-192,7,-49,38,110,-67
91,-52,-195,5,-52,38,105,-87
92,-41,-198,4,-55,36,100,-84
81,-48,-195,6,-56,34,95,-79
84,-53,-202,2,-60,29,111,-59
84,-43,-179,7,-55,34,102,-38
91,-46,-156,3,-50,41,106,-51
94,-49,-137,8,-49,46,113,-54
97,-47,-135,4,-55,40,108,-76
88,-44,-138,-3,-60,35,91,-78
78,-56,-141,6,-61,37,99,-79
86,-46,-137,3,-59,39,108,-76
91,-49,-137,8,-55,30,112,-77
89,-45,-146,6,-51,39,104,-82
88,-49,-158,2,-63,33,108,-76
83,-49,-166,-1,-64,21,92,-83
77,-44,-177,0,-63,35,94,-84
80,-56,-165,5,-56,35,98,-77
87,-45,-151,4,-58,31,108,-84
92,-43,-121,7,-55,47,96,-103
89,-49,-106,3,-57,32,111,-108
87,-54,-105,-1,-65,32,101,-90
81,-45,-108,2,-60,36,98,-74
84,-50,-120,1,-64,32,103,-57
91,-50,-128,3,-55,41,98,-52
85,-48,-166,5,-58,25,102,-60
91,-42,-185,3,-51,34,100,-68
90,-59,-197,4,-54,30,96,-77
92,-40,-208,1,-55,42,105,-75
89,-49,-215,0,-61,31,99,-84
88,-51,-209,4,-56,35,99,-84
89,-50,-209,-2,-58,28,110,-79
89,-47,-206,7,-55,25,98,-84
86,-47,-208,2,-58,45,108,-84
92,-52,-206,6,-52,29,105,-84
87,-48,-205,6,-58,28,100,-82
83,-43,-200,5,-57,40,109,-83
85,-51,-194,5,-54,34,99,-85
88,-51,-183,-1,-57,20,105,-81
90,-43,-183,8,-57,37,100,-79
85,-51,-185,4,-53,35,96,-79
80,-52,-180,2,-58,30,105,-73
83,-48,-177,3,-59,36,96,-74
85,-41,-166,5,-59,32,94,-76
85,-51,-155,5,-57,42,113,-70
88,-44,-151,4,-54,24,98,-72
90,-42,-154,4,-56,38,102,-80
85,-56,-161,-3,-57,37,98,-76
85,-51,-165,0,-60,23,103,-78
83,-46,-163,3,-51,33,99,-80
90,-48,-145,2,-50,44,107,-80
87,-52,-143,1,-57,24,101,-80
90,-47,-130,3,-57,45,113,-78
90,-43,-137,3,-52,40,105,-76
87,-51,-121,10,-57,26,106,-77
89,-42,-119,5,-48,36,113,-70
90,-39,-115,10,-58,44,98,-72
93,-48,-106,1,-55,26,103,-85
85,-51,-111,2,-56,34,101,-97
84,-47,-100,3,-66,37,92,-92
85,-43,-89,8,-58,37,99,-88
87,-51,-86,-1,-55,37,95,-79
88,-51,-97,4,-58,29,103,-62
91,-44,-113,3,-57,43,101,-69
85,-51,-122,0,-58,27,95,-76
83,-50,-131,5,-56,22,109,-65
88,-50,-132,3,-58,41,104,-62
91,-46,-139,7,-52,40,110,-66
88,-45,-155,-1,-57,37,104,-81
89,-46,-169,-1,-52,32,105,-92
87,-47,-182,0,-59,41,97,-104
88,-47,-189,1,-54,23,97,-87
81,-50,-190,0,-54,36,100,-63
87,-48,-200,6,-56,36,104,-57
90,-46,-197,0,-54,26,112,-63
86,-50,-187,3,-57,28,97,-67
83,-48,-172,1,-57,25,105,-62
84,-53,-155,9,-57,40,101,-86
85,-45,-145,2,-58,30,96,-93
86,-51,-135,-1,-53,40,112,-92
92,-38,-137,8,-53,29,103,-86
94,-51,-130,6,-53,36,114,-73
90,-46,-135,4,-57,36,108,-65
84,-48,-134,-2,-56,22,99,-86
85,-47,-124,4,-56,39,98,-102
83,-53,-120,1,-56,31,106,-92
90,-46,-113,5,-54,32,102,-85
92,-40,-114,1,-53,44,100,-73
90,-53,-126,7,-57,35,104,-84
83,-53,-139,-1,-63,38,93,-113
81,-44,-152,2,-58,36,97,-119
84,-53,-157,2,-64,28,101,-88
84,-52,-147,2,-56,36,98,-43
91,-43,-138,9,-52,27,110,-17
94,-46,-142,3,-51,45,103,-18
94,-53,-142,6,-55,29,107,-39
83,-46,-152,3,-61,36,96,-54
85,-43,-154,2,-59,30,102,-72
87,-45,-159,4,-52,27,103,-94
90,-49,-150,6,-53,36,107,-91
94,-43,-160,6,-51,35,108,-83
89,-47,-177,2,-56,38,103,-85
85,-49,-195,5,-59,28,97,-104
84,-48,-215,-1,-64,37,105,-105
80,-46,-222,3,-58,33,98,-89
86,-54,-209,4,-55,37,112,-72
91,-44,-183,8,-52,40,107,-50
86,-49,-162,5,-54,35,103,-44
85,-48,-121,4,-61,41,103,-59
82,-58,-90,-1,-61,26,103,-86
84,-48,-76,-3,-58,34,110,-84
96,-50,-67,7,-54,46,105,-85
86,-44,-68,4,-56,35,109,-79
90,-50,-71,6,-63,40,110,-73
83,-47,-81,3,-60,35,100,-70
83,-50,-80,8,-62,28,108,-76
87,-50,-84,2,-54,37,107,-72
94,-38,-90,0,-57,38,108,-72
89,-47,-110,7,-57,32,101,-70
90,-51,-122,3,-55,27,114,-76
88,-41,-140,3,-54,34,104,-77
89,-49,-153,2,-58,28,108,-73
86,-51,-162,3,-57,29,103,-80
88,-48,-179,2,-62,35,99,-77
85,-46,-184,-2,-60,33,98,-72
89,-58,-177,4,-57,28,109,-75
92,-47,-166,2,-50,34,112,-75
90,-42,-167,4,-55,34,101,-74
92,-52,-163,3,-56,41,104,-81
87,-48,-162,1,-56,24,96,-77
84,-51,-153,3,-58,34,105,-79
87,-46,-141,0,-59,41,99,-74
84,-51,-133,6,-55,23,104,-77
87,-44,-141,4,-60,40,110,-71
84,-47,-155,1,-59,24,92,-78
83,-52,-164,-1,-62,53,101,-73
87,-52,-153,6,-61,38,107,-72
89,-45,-152,5,-49,32,102,-77
91,-45,-146,9,-60,37,103,-67
89,-51,-159,4,-55,37,107,-85
82,-44,-169,3,-58,30,105,-87
90,-45,-175,3,-63,36,96,-90
87,-50,-192,1,-57,22,95,-89
81,-56,-202,-3,-59,31,111,-89
86,-49,-225,2,-58,32,103,-77
87,-50,-222,1,-56,33,103,-76
92,-50,-215,6,-52,30,119,-77
89,-48,-210,0,-58,30,102,-74
88,-54,-203,3,-58,35,100,-70
81,-48,-191,-1,-58,30,100,-70
83,-49,-181,3,-61,36,106,-77
88,-48,-168,3,-59,30,102,-73
82,-47,-145,3,-55,36,109,-73
89,-51,-130,4,-52,36,107,-78
93,-41,-114,3,-57,35,105,-76
91,-48,-104,6,-59,38,104,-76
85,-53,-93,2,-58,27,96,-79
88,-40,-89,2,-58,28,109,-78
86,-50,-94,7,-50,41,96,-69
91,-46,-102,4,-53,43,113,-73
91,-50,-118,5,-60,35,103,-73
88,-43,-123,5,-56,30,98,-75
85,-51,-132,2,-55,39,99,-76
83,-58,-138,-1,-61,30,95,-76
81,-45,-148,3,-62,35,103,-78
86,-49,-163,0,-59,37,102,-78
85,-48,-172,5,-57,30,98,-89
87,-50,-184,-1,-62,37,108,-82
78,-48,-188,2,-62,27,95,-83
84,-52,-186,3,-62,28,97,-84
87,-47,-179,1,-53,33,109,-77
84,-46,-175,3,-64,43,95,-75
85,-50,-158,8,-53,33,106,-80
89,-53,-144,1,-51,28,108,-74
88,-44,-139,3,-56,39,101,-74
87,-47,-135,6,-55,35,103,-72
87,-47,-132,3,-58,33,101,-69
87,-50,-129,3,-58,41,105,-73
89,-42,-137,1,-54,30,102,-81
84,-47,-141,0,-60,45,96,-81
87,-56,-150,-1,-60,35,99,-94
86,-43,-158,0,-62,40,111,-89
86,-50,-163,5,-53,40,100,-78
91,-47,-165,2,-54,32,98,-76
86,-50,-162,1,-60,33,109,-72
85,-46,-158,-1,-60,27,89,-72
86,-52,-143,2,-61,34,102,-71
85,-47,-123,-1,-54,39,116,-73
92,-46,-121,-2,-58,38,103,-71
89,-49,-125,5,-59,33,98,-77
84,-55,-140,2,-62,31,99,-75
86,-49,-152,-1,-61,28,103,-74
86,-44,-183,5,-60,38,95,-76
84,-54,-201,-1,-54,25,99,-73
86,-53,-198,-2,-64,26,102,-72
88,-46,-202,6,-57,32,104,-81
84,-49,-195,4,-52,39,96,-92
90,-51,-191,1,-61,35,99,-93
86,-49,-190,1,-59,30,101,-80
88,-48,-186,3,-54,37,97,-66
86,-52,-185,6,-66,27,98,-80
84,-46,-183,2,-56,32,106,-76
91,-46,-186,3,-52,43,112,-71
93,-52,-178,4,-53,24,99,-72
91,-50,-179,2,-50,38,104,-79
90,-47,-175,3,-60,42,108,-82
82,-53,-178,0,-59,37,90,-90
83,-54,-171,4,-56,31,106,-89
89,-44,-167,1,-55,38,104,-80
89,-45,-165,4,-54,36,104,-62
87,-51,-160,6,-58,32,97,-50
84,-53,-155,0,-57,34,100,-53
84,-48,-162,2,-57,34,103,-52
82,-49,-162,4,-56,41,107,-62
90,-48,-164,4,-57,32,105,-70
89,-44,-167,2,-54,37,113,-79
89,-46,-162,6,-61,29,99,-95
82,-54,-149,1,-61,32,94,-102
83,-44,-154,7,-65,40,97,-100
84,-46,-144,-1,-57,41,112,-99
89,-58,-138,4,-59,27,99,-84
91,-46,-128,1,-55,47,109,-77
86,-46,-134,4,-58,31,99,-76
88,-50,-128,1,-61,39,102,-71
85,-56,-121,0,-64,30,95,-60
87,-42,-117,7,-60,33,107,-62
87,-51,-103,2,-55,43,100,-73
88,-52,-96,5,-52,37,107,-92
94,-41,-96,2,-57,32,102,-101
88,-49,-111,4,-60,35,101,-96
87,-50,-130,2,-61,43,87,-69
82,-49,-141,-1,-64,28,96,-52
81,-50,-152,2,-62,37,101,-54
89,-49,-155,7,-52,31,107,-57
93,-51,-165,3,-49,41,107,-73
94,-44,-176,3,-55,35,97,-89
85,-49,-189,-1,-60,36,105,-87
79,-54,-200,-2,-66,27,87,-74
82,-47,-200,3,-59,47,99,-84
88,-45,-203,4,-52,38,103,-79
95,-46,-200,8,-44,39,108,-77
94,-46,-198,0,-55,43,113,-85
89,-46,-192,4,-60,30,100,-87
83,-45,-181,-2,-60,25,99,-74
80,-58,-172,1,-60,38,104,-82
91,-46,-162,3,-55,34,110,-80
95,-40,-157,6,-48,39,113,-80
94,-51,-162,6,-56,28,108,-89
89,-47,-172,1,-67,26,101,-84
81,-47,-175,3,-59,43,96,-99
82,-54,-175,3,-63,34,109,-120
86,-49,-170,-2,-56,27,102,-109
88,-46,-168,8,-61,47,98,-73
86,-47,-171,2,-56,26,104,-30
82,-57,-169,-1,-56,32,102,-22
87,-50,-175,1,-60,32,99,-32
87,-47,-182,2,-62,43,102,-56
84,-51,-192,0,-60,21,96,-64
87,-52,-190,-1,-59,35,104,-83
86,-45,-188,9,-53,37,108,-97
92,-49,-186,4,-49,30,106,-89
88,-55,-185,-1,-54,30,96,-86
86,-49,-189,-2,-68,26,95,-115
77,-53,-183,2,-65,21,96,-124
77,-55,-174,-1,-56,37,93,-113
85,-56,-163,2,-59,36,101,-90
90,-45,-156,0,-48,43,110,-62
93,-47,-163,3,-55,25,94,-40
88,-53,-188,1,-56,37,98,-42
79,-53,-214,1,-62,31,92,-66
83,-48,-233,1,-54,29,97,-70
83,-52,-234,2,-55,40,108,-76
89,-51,-219,2,-53,29,109,-84
91,-42,-205,8,-54,41,107,-80
89,-54,-180,1,-57,42,101,-77
83,-50,-149,5,-61,30,99,-77
81,-49,-128,-1,-66,39,101,-73
85,-49,-109,3,-60,34,96,-66
89,-51,-101,0,-49,37,99,-71
88,-43,-105,1,-59,42,104,-91
90,-47,-114,9,-56,34,105,-77
89,-56,-124,-1,-54,32,103,-81
86,-47,-138,1,-62,44,99,-101
82,-44,-148,-2,-65,32,110,-100
90,-51,-154,9,-51,31,110,-88
88,-51,-161,1,-58,42,110,-77
90,-42,-167,4,-50,39,100,-61
94,-44,-173,3,-65,35,102,-51
79,-54,-166,1,-55,40,97,-61
85,-47,-164,2,-62,37,100,-71
89,-43,-155,2,-63,31,102,-77
85,-49,-149,1,-53,38,100,-77
86,-50,-144,2,-57,40,103,-88
89,-41,-150,-2,-59,34,103,-98
84,-51,-151,4,-61,22,106,-85
85,-49,-150,-3,-60,44,105,-83
91,-45,-149,4,-60,34,95,-70
83,-45,-144,6,-54,37,106,-68
86,-53,-142,4,-57,36,104,-78
91,-44,-143,2,-59,34,92,-83
87,-51,-157,-1,-58,39,105,-84
90,-47,-164,2,-55,33,99,-80
86,-51,-167,3,-53,29,105,-87
85,-41,-186,1,-57,51,109,-69
89,-48,-196,5,-55,29,96,-59
87,-49,-209,2,-56,43,111,-69
86,-47,-217,0,-59,34,101,-99
90,-45,-213,1,-55,30,100,-94
83,-58,-219,1,-58,39,96,-86
87,-50,-223,4,-56,23,103,-63
88,-40,-225,4,-53,36,105,-39
90,-49,-228,2,-58,44,103,-40
86,-55,-216,1,-53,27,100,-59
85,-45,-208,2,-64,38,101,-80
81,-54,-201,-1,-63,20,91,-87
80,-53,-185,5,-59,44,97,-91
86,-51,-176,6,-57,48,102,-93
92,-38,-153,6,-51,33,114,-88
92,-51,-147,-1,-51,30,109,-80
88,-52,-146,5,-63,44,93,-70
76,-52,-142,0,-72,28,87,-59
74,-51,-134,0,-58,33,103,-50
89,-50,-118,1,-58,49,103,-65
90,-48,-105,6,-50,40,110,-94
92,-47,-108,5,-55,30,111,-91
84,-53,-119,-1,-63,40,96,-96
86,-51,-142,0,-61,41,105,-96
86,-48,-155,4,-61,31,98,-88
83,-50,-173,0,-50,23,103,-76
90,-50,-173,1,-55,45,110,-79
93,-51,-180,5,-55,28,98,-83
89,-41,-186,1,-59,30,102,-70
85,-47,-184,6,-56,48,102,-70
85,-52,-184,2,-64,37,97,-75
85,-45,-181,6,-57,26,109,-71
87,-52,-176,1,-53,25,113,-66
83,-50,-172,4,-60,50,95,-74
89,-46,-165,7,-57,32,111,-73
87,-49,-158,2,-60,26,110,-74
81,-49,-151,-2,-64,38,99,-78
79,-56,-149,0,-66,25,103,-88
82,-52,-140,0,-66,38,108,-78
89,-51,-134,5,-49,30,111,-73
93,-47,-124,-2,-55,43,114,-81
91,-47,-124,10,-55,35,97,-78
88,-46,-137,-1,-58,35,100,-74
83,-49,-147,3,-65,25,78,-84
78,-48,-165,0,-58,31,90,-76
89,-48,-174,5,-52,29,119,-71
90,-49,-179,4,-54,37,121,-77
91,-45,-190,5,-53,42,120,-78
89,-45,-184,5,-54,26,117,-73
82,-49,-168,1,-60,38,108,-80
90,-49,-135,1,-58,45,102,-79
88,-43,-113,6,-65,33,98,-77
86,-56,-106,1,-55,29,96,-78
86,-49,-115,3,-54,41,100,-79
92,-46,-134,4,-60,37,100,-74
87,-48,-169,-1,-55,36,98,-76
83,-55,-195,-3,-61,32,103,-79
83,-52,-210,-1,-61,38,93,-76
83,-47,-213,1,-58,24,106,-74
85,-54,-212,1,-51,36,103,-73
91,-45,-213,3,-52,37,107,-84
89,-48,-215,0,-57,40,99,-76
84,-51,-218,-4,-67,28,88,-74
80,-53,-221,-5,-65,29,95,-80
75,-56,-213,-1,-64,37,100,-95
84,-51,-208,1,-56,35,100,-110
88,-49,-201,-1,-53,38,109,-107
88,-47,-204,4,-56,42,102,-97
90,-48,-208,7,-55,24,101,-77
83,-47,-213,1,-58,42,102,-74
82,-49,-214,2,-60,33,100,-104
83,-43,-207,6,-63,32,109,-115
85,-54,-194,6,-54,30,96,-93
87,-50,-176,4,-52,36,111,-46
91,-49,-159,1,-56,38,102,-17
91,-43,-149,6,-52,38,108,-10
90,-48,-145,5,-51,31,108,-34
88,-47,-143,3,-58,43,100,-52
88,-47,-142,5,-57,39,104,-66
88,-50,-136,3,-56,32,107,-87
86,-50,-128,6,-55,46,109,-93
90,-43,-123,4,-58,39,98,-88
86,-47,-128,2,-60,24,104,-84
86,-50,-135,3,-56,45,104,-99
89,-39,-141,5,-57,38,103,-102
84,-49,-136,4,-53,30,104,-88
88,-47,-139,8,-56,40,103,-83
87,-48,-139,2,-48,45,105,-74
88,-43,-139,5,-66,40,96,-59
79,-55,-134,4,-59,26,99,-59
83,-51,-126,2,-56,45,117,-62
93,-40,-110,8,-49,40,101,-64
92,-45,-120,4,-49,31,111,-74
95,-50,-141,1,-60,41,104,-88
86,-48,-152,4,-62,42,97,-86
79,-48,-164,-2,-62,29,97,-92
82,-53,-156,0,-59,46,101,-85
92,-49,-154,4,-51,37,112,-78
94,-39,-155,6,-50,41,105,-78
92,-50,-160,2,-58,31,103,-67
94,-47,-174,2,-58,44,105,-79
85,-49,-188,5,-52,46,105,-76
86,-48,-199,5,-53,27,108,-69
89,-43,-212,3,-51,42,103,-76
90,-49,-215,6,-53,27,107,-76
91,-41,-207,6,-58,38,99,-76
87,-53,-193,4,-55,21,103,-78
88,-49,-174,3,-63,46,99,-81
87,-40,-150,8,-56,31,102,-77
89,-50,-142,-1,-63,35,102,-76
86,-53,-137,0,-57,33,99,-80
82,-51,-133,2,-61,35,107,-77
86,-44,-136,1,-60,28,93,-75
87,-52,-133,4,-58,38,106,-77
86,-53,-142,-3,-64,35,100,-81
83,-44,-148,5,-56,35,97,-71
85,-49,-155,0,-64,27,104,-74
94,-57,-154,3,-57,42,102,-86
85,-45,-147,2,-55,40,105,-89
90,-47,-156,2,-59,28,101,-95
85,-52,-160,0,-64,49,99,-89
79,-54,-170,0,-59,38,99,-71
86,-44,-169,2,-59,27,102,-69
88,-48,-169,0,-55,40,104,-87
91,-45,-168,2,-54,42,114,-89
89,-50,-176,4,-53,34,96,-93
90,-44,-173,5,-60,28,106,-79
85,-53,-167,4,-54,47,98,-63
81,-45,-154,7,-63,24,107,-64
88,-48,-146,6,-54,38,100,-67
90,-50,-139,0,-61,23,103,-82
84,-49,-147,5,-59,42,100,-67
88,-42,-153,1,-53,30,96,-50
88,-55,-168,3,-58,30,102,-52
84,-51,-182,1,-57,39,104,-54
85,-42,-177,9,-55,29,108,-56
93,-53,-168,1,-49,33,102,-72
92,-49,-160,4,-59,39,102,-94
87,-52,-146,4,-53,28,104,-110
83,-44,-129,3,-59,30,94,-111
81,-49,-131,1,-61,34,109,-100
81,-56,-130,1,-65,32,98,-78
83,-46,-137,1,-56,27,97,-61
91,-51,-141,-1,-55,40,108,-59
86,-49,-139,6,-57,32,106,-61
87,-47,-136,5,-57,35,101,-71
81,-49,-134,4,-57,38,104,-84
89,-51,-128,2,-57,33,108,-92
85,-50,-123,1,-54,37,102,-88
85,-45,-122,4,-58,31,97,-90
87,-51,-125,-3,-60,47,100,-84
86,-51,-130,1,-61,28,107,-75
84,-47,-129,3,-51,32,102,-74
88,-50,-136,-1,-58,32,97,-78
87,-55,-131,0,-59,37,101,-75
85,-50,-139,2,-59,45,103,-72
81,-46,-139,1,-54,31,96,-83
87,-50,-143,1,-61,37,104,-78
85,-54,-143,3,-59,34,105,-74
87,-42,-139,0,-53,35,109,-76
91,-46,-129,3,-60,44,103,-82
93,-46,-129,8,-52,38,105,-78
87,-46,-124,4,-55,36,109,-78
87,-46,-134,4,-63,45,97,-86
88,-53,-148,2,-57,29,100,-77
87,-51,-153,4,-57,27,109,-55
86,-42,-155,6,-56,37,102,-58
90,-52,-168,3,-56,35,106,-54
95,-48,-172,7,-59,38,111,-85
81,-46,-178,4,-56,32,99,-95
91,-47,-187,2,-59,46,101,-92
87,-52,-183,4,-59,26,105,-79
87,-46,-192,7,-59,38,99,-67
87,-49,-200,0,-57,34,103,-74
89,-55,-215,2,-64,45,99,-83
85,-51,-208,3,-58,24,107,-85
88,-46,-197,3,-53,33,103,-88
90,-48,-189,3,-54,28,103,-79
88,-51,-180,6,-60,32,104,-77
84,-45,-169,6,-56,24,97,-80
86,-51,-155,8,-60,54,107,-77
87,-54,-136,4,-54,25,112,-71
93,-44,-119,11,-48,42,103,-71
91,-44,-105,2,-50,34,108,-77
93,-51,-96,5,-56,45,105,-72
87,-44,-89,6,-62,29,106,-70
91,-43,-76,9,-51,36,105,-73
92,-45,-70,7,-57,46,110,-69
96,-47,-70,6,-50,37,102,-72
96,-44,-87,11,-56,37,104,-71
88,-45,-117,-2,-57,38,98,-78
78,-52,-148,0,-60,30,96,-70
84,-47,-160,3,-63,28,101,-76
84,-45,-173,1,-52,36,103,-79
86,-49,-177,4,-58,39,102,-73
89,-49,-181,1,-56,34,98,-75
83,-45,-180,11,-55,31,103,-75
82,-51,-176,0,-59,44,100,-79
80,-54,-169,3,-58,31,99,-77
82,-42,-155,1,-62,31,98,-80
85,-50,-154,5,-54,34,96,-77
83,-50,-153,2,-56,41,102,-84
85,-52,-146,6,-57,32,109,-81
90,-45,-134,6,-47,31,104,-88
85,-44,-127,2,-55,42,108,-86
93,-52,-132,3,-55,36,101,-78
86,-46,-133,6,-58,27,106,-80
85,-48,-141,2,-56,47,101,-73
90,-49,-140,5,-54,33,113,-73
88,-47,-145,5,-54,32,96,-71
85,-45,-154,0,-61,40,104,-75
83,-50,-154,8,-59,32,103,-76
90,-47,-150,5,-55,39,105,-71
90,-51,-145,8,-48,38,112,-74
92,-50,-138,4,-50,40,105,-75
88,-48,-122,0,-63,28,103,-73
88,-47,-106,5,-56,39,102,-70
83,-43,-92,1,-57,40,101,-75
90,-50,-85,5,-57,31,104,-67
90,-48,-97,3,-51,37,101,-72
86,-52,-110,-1,-62,27,92,-78
83,-52,-129,-2,-67,36,102,-89
78,-54,-170,0,-65,24,91,-89
84,-51,-178,1,-62,25,111,-87
87,-46,-184,1,-50,38,101,-87
90,-51,-179,6,-48,30,114,-84
85,-48,-180,4,-58,41,107,-76
80,-47,-189,0,-64,27,96,-71
70,-53,-195,0,-61,21,94,-58
78,-55,-191,-4,-63,29,105,-86
89,-44,-187,6,-53,28,109,-98
90,-49,-184,2,-50,36,110,-91
87,-50,-195,2,-56,35,105,-83
83,-50,-197,-1,-59,28,96,-60
84,-52,-201,-4,-68,20,103,-48
78,-56,-192,5,-58,35,96,-50
87,-47,-185,-1,-55,29,107,-52
88,-47,-166,7,-51,36,109,-61
96,-49,-154,4,-48,46,112,-64
95,-46,-145,7,-55,35,100,-73
87,-49,-140,0,-57,38,96,-84
85,-44,-131,6,-59,39,104,-84
83,-52,-137,7,-62,40,103,-78
91,-45,-143,4,-50,38,94,-78
90,-47,-160,8,-54,34,119,-81
92,-45,-178,6,-49,49,103,-92
92,-42,-190,5,-57,25,93,-89
86,-50,-192,4,-61,38,98,-83
77,-49,-179,5,-58,36,104,-85
84,-53,-174,2,-53,37,99,-64
90,-40,-159,9,-52,25,112,-61
95,-49,-144,-1,-52,43,106,-71
85,-49,-132,5,-62,26,93,-75
81,-56,-123,-1,-65,26,99,-76
80,-53,-114,0,-64,32,93,-87
76,-52,-101,-2,-63,34,106,-89
88,-50,-92,7,-56,32,109,-94
90,-48,-82,-3,-53,34,103,-94
90,-48,-85,4,-61,35,98,-91
86,-52,-98,7,-57,35,100,-72
81,-49,-113,-2,-62,34,93,-62
88,-50,-119,5,-58,38,114,-65
91,-48,-123,12,-46,44,105,-53
95,-43,-133,8,-57,32,113,-65
95,-44,-148,4,-47,46,108,-76
94,-44,-162,4,-52,35,101,-93
93,-51,-178,6,-62,35,103,-103
85,-46,-197,6,-56,34,100,-99
86,-45,-205,-1,-58,42,100,-85
82,-49,-216,2,-60,37,101,-65
94,-47,-228,6,-53,30,105,-52
90,-47,-234,1,-52,42,110,-55
90,-42,-224,4,-53,39,100,-62
89,-52,-208,4,-57,25,98,-69
85,-48,-196,5,-61,46,101,-77
86,-49,-183,-1,-57,36,108,-85
89,-48,-162,6,-57,43,109,-73
97,-46,-156,8,-53,31,101,-76
91,-44,-146,-3,-55,38,104,-75
85,-52,-142,4,-64,30,97,-80
83,-50,-144,1,-56,32,101,-103
91,-47,-148,2,-59,28,106,-107
88,-47,-143,-3,-54,43,110,-96
97,-46,-152,6,-51,30,108,-80
96,-45,-163,3,-56,35,101,-70
91,-48,-171,1,-54,41,106,-93
84,-50,-178,1,-62,28,103,-117
84,-46,-185,5,-57,39,102,-109
83,-50,-176,3,-55,36,105,-80
88,-49,-184,3,-53,30,113,-35
83,-46,-179,7,-51,37,109,-16
85,-47,-176,4,-57,42,104,-32
84,-49,-183,3,-56,34,108,-35
83,-51,-180,7,-57,30,106,-43
86,-48,-182,2,-57,43,98,-60
88,-42,-177,4,-54,39,111,-76
83,-51,-167,3,-54,46,102,-105
93,-47,-174,7,-53,32,103,-102
91,-43,-180,5,-57,46,102,-112
85,-50,-200,3,-55,38,104,-116
87,-45,-211,1,-63,32,88,-95
87,-51,-213,4,-58,42,108,-91
87,-55,-201,3,-55,32,95,-80
90,-45,-181,6,-50,37,117,-75
88,-47,-167,5,-54,41,105,-62
86,-49,-132,1,-65,37,98,-72
86,-50,-123,2,-65,30,99,-64
82,-49,-111,5,-55,23,98,-67
92,-51,-116,-3,-59,41,103,-76
85,-55,-124,-3,-57,21,98,-76
86,-50,-142,3,-59,26,103,-73
84,-52,-148,-3,-60,36,108,-73
89,-47,-151,1,-58,33,106,-81
90,-52,-143,-2,-55,35,99,-66
89,-49,-143,1,-61,22,110,-79
85,-49,-136,0,-62,44,96,-73
85,-51,-139,4,-59,38,104,-73
88,-47,-137,-1,-53,39,109,-71
95,-40,-139,8,-49,41,110,-74
96,-46,-149,6,-54,35,109,-75
92,-47,-166,2,-54,37,102,-78
83,-47,-185,4,-65,34,97,-85
83,-47,-190,0,-62,37,103,-87
86,-48,-193,6,-53,48,104,-80
91,-48,-194,5,-54,30,109,-90
90,-45,-182,0,-53,35,104,-83
92,-48,-170,2,-62,26,107,-81
88,-49,-153,2,-64,26,102,-73
84,-43,-142,-1,-60,29,97,-82
80,-53,-142,-2,-68,37,103,-78
82,-56,-150,1,-61,21,104,-75
86,-46,-163,-2,-58,41,102,-73
92,-46,-169,6,-54,33,110,-79
91,-52,-172,0,-53,43,114,-77
89,-48,-192,0,-60,31,96,-73
84,-45,-209,-1,-66,45,98,-79
81,-55,-226,-1,-58,21,102,-81
85,-52,-225,4,-56,30,102,-76
93,-45,-228,5,-50,43,111,-77
94,-46,-232,6,-51,40,102,-74
89,-52,-246,1,-53,30,98,-76
85,-48,-252,2,-56,33,99,-81
84,-48,-244,3,-63,31,94,-81
85,-57,-218,-1,-56,41,103,-78
86,-46,-199,8,-50,29,106,-73
95,-39,-176,5,-47,46,112,-74
87,-52,-164,0,-56,31,104,-77
93,-51,-149,5,-54,42,100,-76
88,-49,-136,2,-63,33,101,-75
85,-50,-119,0,-59,36,97,-78
82,-57,-112,6,-64,43,100,-77
84,-46,-105,2,-58,36,105,-76
91,-41,-100,4,-51,34,105,-78
87,-54,-99,3,-60,31,105,-76
92,-47,-103,6,-59,43,99,-78
85,-48,-114,-1,-57,38,96,-79
81,-50,-124,0,-66,33,100,-78
87,-50,-143,8,-50,39,105,-78
91,-45,-162,3,-56,30,107,-74
91,-45,-175,4,-54,41,104,-75
90,-51,-179,-1,-59,28,98,-82
90,-46,-182,3,-59,28,94,-77
86,-47,-174,6,-55,35,108,-73
87,-51,-164,2,-56,34,102,-80
86,-49,-154,5,-50,37,104,-68
92,-40,-148,5,-55,41,100,-76
89,-50,-154,1,-57,32,102,-80
85,-48,-163,0,-55,35,107,-72
89,-45,-162,8,-55,44,102,-69
88,-43,-148,5,-55,44,109,-73
88,-45,-138,1,-54,43,111,-73
93,-44,-134,9,-57,37,110,-69
90,-44,-123,10,-60,44,105,-77
86,-49,-121,4,-55,39,105,-76
90,-50,-131,4,-57,43,107,-77
90,-45,-138,5,-55,38,100,-73
89,-44,-143,5,-55,34,112,-78
92,-50,-154,5,-52,38,106,-67
94,-47,-149,5,-56,29,108,-72
92,-45,-157,12,-57,31,104,-77
87,-48,-157,3,-55,48,100,-77
86,-55,-151,2,-58,27,101,-67
85,-45,-131,6,-62,37,96,-74
89,-46,-112,6,-51,34,110,-79
93,-47,-104,3,-52,40,110,-73
95,-46,-101,7,-55,30,107,-69
94,-42,-122,6,-54,41,100,-79
87,-47,-138,1,-62,27,105,-79
84,-51,-152,5,-58,39,106,-75
88,-44,-181,5,-55,38,107,-78
88,-44,-184,7,-59,38,102,-73
86,-46,-172,5,-51,41,104,-71
88,-43,-170,6,-55,43,104,-73
88,-42,-164,7,-63,36,90,-81
77,-49,-167,0,-64,30,96,-78
79,-51,-166,4,-60,32,104,-75
92,-47,-162,7,-55,40,107,-70
92,-44,-158,8,-54,27,107,-78
84,-51,-160,0,-51,33,102,-74
92,-50,-172,1,-62,37,96,-72
87,-49,-183,0,-62,34,96,-82
83,-49,-185,1,-62,34,100,-71
90,-56,-188,5,-57,43,98,-75
92,-49,-179,1,-55,30,106,-78
97,-46,-170,2,-54,38,101,-73
91,-53,-163,3,-54,30,113,-75
92,-44,-157,0,-64,41,102,-73
78,-46,-152,2,-59,39,91,-79
81,-52,-148,-3,-62,44,107,-67
81,-48,-148,6,-61,31,98,-67
88,-40,-160,4,-56,51,107,-75
84,-51,-169,4,-58,30,102,-80
87,-45,-176,4,-57,35,100,-90
82,-51,-172,5,-61,34,102,-91
84,-48,-163,2,-65,26,99,-89
78,-52,-144,1,-58,34,99,-79
89,-50,-123,5,-51,37,116,-75
93,-43,-110,2,-53,42,102,-67
93,-50,-111,1,-54,37,100,-62
91,-48,-111,0,-59,30,99,-80
86,-46,-107,5,-58,37,100,-111
84,-46,-102,3,-58,34,109,-94
94,-51,-92,4,-46,40,103,-79
101,-43,-86,5,-53,43,115,-71
94,-47,-78,5,-53,35,108,-52
90,-48,-86,9,-61,39,97,-46
82,-47,-103,4,-61,23,99,-49
83,-48,-121,5,-61,44,105,-58
88,-50,-141,2,-61,39,101,-66
90,-48,-158,2,-52,34,109,-87
93,-45,-184,3,-61,36,99,-111
83,-42,-201,3,-59,29,95,-119
79,-58,-210,1,-62,36,103,-92
89,-46,-208,5,-57,31,101,-70
87,-46,-211,1,-54,42,108,-51
91,-47,-197,3,-59,37,106,-47
85,-47,-202,3,-54,23,101,-56
83,-47,-198,2,-59,46,94,-68
85,-46,-186,2,-60,32,104,-82
85,-48,-162,6,-55,26,103,-77
92,-50,-130,4,-52,41,102,-79
95,-42,-107,5,-53,37,112,-86
89,-48,-104,8,-53,15,105,-81
88,-49,-112,5,-61,31,106,-80
87,-40,-121,4,-58,41,98,-85
87,-51,-130,0,-61,31,104,-82
91,-50,-143,6,-58,32,102,-80
96,-50,-148,3,-55,37,102,-82
93,-46,-153,4,-55,41,108,-80
95,-49,-157,5,-58,30,108,-75
91,-47,-160,6,-55,40,105,-75
90,-47,-166,4,-59,32,97,-78
79,-52,-173,-3,-64,21,93,-80
79,-53,-177,5,-58,44,108,-76
88,-42,-178,5,-54,32,113,-78
95,-43,-168,5,-45,34,109,-76
95,-48,-172,8,-51,44,106,-75
93,-43,-184,6,-56,30,106,-82
86,-48,-182,2,-57,29,94,-76
90,-49,-175,8,-51,26,109,-67
96,-44,-166,9,-47,37,111,-66
100,-46,-155,12,-54,47,107,-68
92,-46,-140,7,-47,33,106,-71
86,-46,-135,1,-61,32,98,-81
84,-44,-136,4,-59,39,101,-84
78,-45,-143,3,-57,38,111,-83
85,-52,-153,4,-50,39,100,-74
90,-42,-163,8,-47,40,110,-72
88,-42,-184,8,-56,33,100,-78
77,-48,-185,2,-62,36,101,-77
82,-50,-166,3,-57,38,100,-74
81,-45,-151,5,-58,47,93,-80
88,-50,-123,0,-60,39,108,-75
96,-44,-109,9,-48,44,109,-73
96,-41,-109,10,-49,40,109,-76
89,-51,-124,0,-60,43,101,-77
86,-50,-131,2,-62,37,95,-75
81,-47,-136,1,-60,32,107,-64
86,-47,-137,3,-60,41,107,-59
92,-46,-130,5,-49,36,110,-64
90,-45,-140,8,-54,39,112,-74
91,-50,-149,0,-58,35,105,-85
87,-50,-151,0,-60,30,95,-91
81,-53,-159,0,-62,32,104,-83
86,-42,-158,5,-53,41,107,-77
91,-49,-154,2,-57,35,114,-78
92,-48,-155,5,-51,24,101,-76
97,-47,-157,5,-52,46,111,-68
92,-39,-160,8,-56,37,99,-78
93,-55,-153,2,-62,29,101,-80
89,-45,-146,-1,-59,33,100,-71
86,-46,-142,10,-55,28,110,-76
97,-46,-141,3,-51,43,103,-71
93,-52,-137,5,-57,22,105,-74
89,-46,-144,3,-61,34,108,-73
82,-50,-152,1,-58,36,90,-78
81,-56,-152,-3,-67,30,95,-94
85,-43,-159,8,-57,27,103,-92
91,-45,-156,2,-53,47,103,-91
96,-55,-147,6,-51,40,108,-76
91,-44,-151,5,-54,28,113,-58
88,-45,-151,1,-60,39,100,-65
84,-52,-163,5,-59,32,98,-74
80,-50,-175,3,-54,39,102,-76
85,-45,-186,2,-55,26,103,-75
91,-42,-203,7,-51,40,105,-71
86,-47,-221,0,-54,26,99,-87
87,-47,-243,2,-62,39,106,-89
79,-46,-242,2,-56,25,98,-86
78,-52,-236,1,-60,44,96,-76
84,-48,-213,4,-55,20,102,-51
88,-49,-192,2,-59,36,101,-43
84,-51,-181,1,-57,36,101,-55
78,-55,-169,1,-62,34,90,-59
75,-48,-161,-4,-66,29,96,-69
79,-49,-141,-2,-60,40,92,-96
81,-52,-133,-1,-54,37,105,-117
85,-49,-113,-1,-60,25,97,-125
89,-47,-103,-1,-57,40,110,-121
93,-56,-103,4,-59,42,99,-98
90,-49,-100,-1,-63,27,106,-75
91,-47,-97,-2,-61,27,106,-66
86,-49,-114,0,-60,40,106,-65
91,-51,-130,4,-50,37,108,-59
93,-46,-150,3,-58,39,104,-65
90,-44,-165,3,-64,31,99,-68
81,-49,-178,1,-53,38,108,-70
92,-53,-185,1,-60,32,104,-70
88,-40,-192,5,-61,35,100,-72
87,-52,-194,2,-57,36,103,-88
90,-50,-197,3,-58,38,102,-86
89,-43,-198,2,-54,37,104,-86
88,-42,-192,6,-55,32,98,-81
89,-58,-191,2,-58,44,100,-78
87,-45,-192,2,-59,20,103,-73
82,-53,-188,2,-61,35,95,-70
82,-52,-171,2,-61,41,100,-75
80,-55,-164,1,-55,31,103,-72
81,-42,-156,0,-61,34,101,-74
84,-50,-154,5,-58,33,103,-83
86,-53,-158,3,-60,33,103,-82
81,-48,-156,0,-66,27,95,-83
81,-50,-165,0,-64,33,99,-90
80,-52,-169,1,-57,23,103,-79
86,-51,-172,0,-62,37,110,-61
92,-39,-177,5,-56,28,104,-55
86,-52,-184,0,-59,27,106,-57
85,-53,-177,3,-60,32,107,-81
85,-46,-173,5,-59,31,104,-94
87,-50,-157,0,-64,37,107,-98
86,-49,-138,1,-58,27,110,-80
90,-47,-122,6,-57,38,112,-68
91,-43,-120,2,-58,32,108,-72
88,-49,-133,1,-51,34,105,-66
93,-48,-148,3,-56,27,106,-71
83,-49,-185,7,-63,33,103,-86
85,-48,-216,0,-60,31,100,-88
82,-52,-227,1,-62,34,101,-79
92,-49,-229,-1,-59,35,109,-80
87,-44,-222,3,-55,30,105,-70
93,-51,-221,5,-53,46,102,-59
88,-47,-226,-1,-62,28,102,-54
81,-47,-236,0,-65,39,91,-70
81,-50,-243,-1,-58,38,100,-94
88,-52,-233,5,-56,29,108,-90
88,-44,-224,7,-54,41,112,-85
90,-42,-215,4,-54,40,102,-78
88,-54,-212,1,-54,32,94,-57
80,-51,-203,4,-66,29,95,-59
78,-52,-186,1,-59,38,102,-74
83,-53,-175,1,-61,28,103,-70
85,-51,-161,4,-61,42,110,-80
84,-44,-157,4,-55,31,100,-81
84,-50,-155,3,-55,44,103,-81
88,-54,-158,1,-58,29,107,-78
86,-46,-156,-2,-56,33,98,-71
84,-45,-165,1,-69,29,99,-74
85,-54,-178,-1,-61,32,100,-72
89,-54,-180,6,-54,29,102,-75
94,-43,-189,6,-58,33,107,-86
93,-51,-193,3,-53,27,106,-80
89,-54,-192,-1,-60,31,102,-87
82,-47,-190,2,-64,34,97,-82
79,-49,-188,-5,-62,26,92,-79
82,-49,-178,2,-57,29,109,-83
87,-50,-162,7,-55,33,103,-78
88,-43,-145,5,-56,29,106,-79
91,-53,-130,6,-55,44,108,-82
83,-53,-125,-1,-62,32,100,-74
79,-50,-120,3,-62,34,101,-80
82,-45,-109,2,-59,36,102,-79
90,-52,-93,2,-55,42,107,-71
89,-47,-91,6,-59,40,109,-82
92,-46,-106,4,-55,48,106,-95
88,-49,-120,1,-54,27,97,-89
85,-55,-135,0,-65,37,108,-84
86,-38,-144,4,-59,38,101,-80
88,-47,-156,5,-50,29,109,-71
90,-54,-169,3,-59,26,106,-66
93,-46,-181,7,-55,39,106,-70
87,-42,-199,1,-63,32,88,-77
84,-53,-213,1,-61,33,97,-71
85,-50,-221,2,-61,32,97,-78
88,-45,-234,3,-58,31,103,-75
85,-47,-234,6,-55,38,97,-78
92,-56,-222,3,-60,33,104,-79
90,-48,-204,5,-59,36,103,-82
83,-44,-188,3,-59,43,101,-80
89,-58,-177,3,-58,28,107,-74
85,-48,-159,4,-61,32,104,-75
89,-46,-150,2,-55,32,107,-73
88,-47,-148,-2,-55,32,109,-73
87,-54,-133,8,-53,32,107,-72
84,-47,-126,0,-59,40,111,-82
83,-44,-130,4,-60,30,106,-114
87,-52,-127,10,-54,43,107,-109
82,-43,-138,1,-60,35,109,-103
89,-48,-149,3,-58,44,107,-68
86,-50,-174,4,-53,29,99,-43
88,-50,-197,3,-59,38,102,-51
84,-45,-214,1,-60,41,101,-63
87,-54,-221,4,-57,35,101,-74
91,-47,-215,1,-55,33,100,-74
91,-47,-211,4,-56,28,104,-64
95,-43,-198,1,-53,43,98,-74
90,-51,-178,8,-52,23,108,-80
90,-50,-168,5,-58,36,100,-80
91,-46,-152,-3,-57,30,100,-66
80,-52,-133,-2,-54,43,108,-54
87,-51,-131,3,-63,29,104,-50
83,-49,-130,2,-61,31,107,-69
85,-47,-144,0,-63,41,96,-80
81,-59,-164,7,-61,25,102,-84
87,-49,-184,8,-59,38,100,-88
87,-48,-204,0,-57,37,94,-101
84,-49,-204,4,-56,31,107,-100
82,-52,-185,4,-57,35,106,-92
86,-45,-171,0,-54,36,103,-85
82,-50,-149,2,-59,36,95,-69
80,-56,-125,5,-56,31,89,-64
85,-45,-117,5,-65,33,89,-64
86,-54,-120,-3,-60,43,89,-71
89,-52,-118,7,-56,35,104,-75
88,-45,-126,4,-56,40,116,-81
84,-46,-128,-1,-58,33,113,-87
87,-55,-128,4,-56,32,120,-82
88,-51,-126,-1,-56,40,122,-86
89,-45,-135,9,-62,34,106,-83
89,-51,-145,0,-58,35,107,-80
84,-46,-145,4,-60,35,94,-83
89,-47,-153,8,-59,27,103,-79
87,-40,-150,7,-51,39,100,-79
93,-53,-150,2,-51,33,109,-79
94,-49,-146,4,-59,28,97,-77
89,-44,-156,6,-64,32,95,-81
87,-50,-151,-1,-55,31,103,-73
92,-55,-149,3,-51,30,101,-80
89,-47,-148,2,-59,32,106,-80
91,-49,-153,6,-53,34,106,-81
90,-53,-136,0,-57,31,105,-85
77,-48,-128,4,-60,37,97,-77
79,-46,-119,0,-61,27,99,-55
78,-55,-108,-4,-51,34,100,-38
84,-47,-105,1,-57,33,101,-43
81,-45,-129,2,-68,31,95,-59
82,-55,-147,-1,-62,36,94,-102
79,-51,-165,4,-61,32,106,-106
88,-47,-182,3,-55,30,107,-99
95,-43,-211,4,-50,42,101,-85
101,-51,-239,4,-58,37,97,-80
93,-47,-271,4,-58,28,98,-75
98,-47,-294,1,-60,36,91,-77
99,-54,-300,-2,-63,38,99,-72
94,-52,-298,4,-56,24,97,-75
93,-47,-273,4,-51,45,104,-76
94,-48,-241,6,-54,42,106,-69
90,-48,-207,-2,-48,39,106,-74
85,-41,-183,6,-62,33,105,-78
73,-47,-172,1,-60,37,101,-72
76,-53,-157,7,-54,42,109,-68
76,-47,-143,3,-53,35,114,-73
86,-45,-135,6,-53,34,110,-70
83,-50,-126,8,-53,36,105,-68
82,-47,-111,7,-54,39,116,-73
83,-42,-105,7,-55,36,104,-74
81,-50,-93,5,-65,39,102,-80
84,-54,-77,5,-52,34,99,-79
92,-45,-59,8,-55,42,107,-87
87,-44,-56,10,-52,47,107,-84
88,-51,-78,3,-58,38,94,-83
79,-51,-95,-4,-62,29,97,-83
79,-50,-117,0,-70,33,94,-81
80,-47,-132,6,-58,34,99,-72
89,-50,-135,7,-48,30,98,-77
91,-45,-154,5,-52,51,113,-77
89,-45,-164,2,-60,33,99,-74
94,-52,-176,6,-57,31,93,-71
89,-45,-192,-1,-60,31,103,-79
84,-52,-196,2,-63,36,88,-83
92,-54,-191,-2,-58,33,103,-78
94,-52,-176,5,-46,33,99,-78
96,-40,-176,4,-53,43,106,-76
92,-51,-167,5,-57,28,101,-74
88,-48,-159,3,-58,27,92,-77
83,-49,-155,1,-62,41,106,-81
82,-45,-151,2,-55,35,90,-74
86,-51,-146,3,-52,28,102,-74
90,-48,-152,8,-57,39,107,-76
88,-43,-156,-1,-51,37,95,-76
92,-45,-165,1,-54,33,98,-77
92,-54,-175,10,-57,32,107,-80
91,-43,-178,0,-58,35,101,-78
89,-47,-180,3,-57,32,100,-80
92,-55,-173,0,-60,29,94,-77
89,-43,-166,3,-56,33,107,-82
83,-49,-145,2,-55,33,106,-78
81,-46,-133,2,-68,35,91,-77
82,-51,-117,5,-55,32,110,-82
80,-52,-102,-4,-62,34,95,-79
83,-49,-104,5,-63,35,98,-78
91,-51,-117,2,-58,31,110,-76
95,-48,-137,4,-55,36,108,-76
92,-47,-177,3,-60,35,100,-76
90,-46,-202,-2,-63,27,96,-82
89,-58,-214,2,-62,33,100,-82
88,-47,-220,1,-61,37,110,-72
97,-50,-225,2,-53,20,100,-78
96,-55,-221,-1,-57,30,106,-82
91,-49,-216,5,-53,38,104,-72
89,-50,-211,6,-52,35,97,-75
87,-52,-208,4,-57,33,98,-72
79,-46,-207,6,-54,35,113,-79
74,-47,-205,2,-56,38,98,-71
77,-51,-195,2,-60,26,101,-72
71,-51,-192,3,-53,35,105,-71
75,-48,-180,7,-56,44,96,-73
77,-42,-177,7,-54,39,109,-76
84,-48,-174,7,-48,34,100,-79
81,-49,-175,3,-54,43,102,-85
83,-44,-177,5,-57,41,97,-78
79,-50,-178,2,-60,26,86,-83
82,-55,-179,1,-55,48,98,-78
87,-49,-177,6,-53,48,96,-77
94,-42,-186,2,-52,25,102,-73
107,-52,-196,4,-51,40,103,-80
103,-49,-201,7,-53,45,90,-74
103,-47,-205,0,-66,25,97,-74
98,-49,-200,1,-58,38,94,-77
92,-52,-188,3,-55,41,98,-75
86,-47,-177,5,-56,37,102,-74
87,-42,-167,6,-55,37,101,-86
89,-52,-160,4,-55,34,103,-95
85,-48,-157,-2,-61,36,103,-90
86,-47,-146,1,-57,32,97,-83
84,-51,-137,3,-60,36,104,-75
93,-53,-127,3,-53,41,109,-72
91,-43,-117,2,-55,45,101,-70
93,-45,-105,1,-55,37,109,-74
89,-55,-104,5,-55,24,103,-73
87,-43,-108,6,-59,44,99,-74
82,-47,-128,0,-57,28,101,-76
86,-49,-136,5,-51,40,101,-76
87,-44,-151,12,-51,43,105,-77
89,-41,-160,7,-49,38,106,-76
87,-47,-183,0,-56,33,102,-80
81,-51,-196,3,-47,32,102,-78
74,-44,-220,4,-60,32,97,-73
79,-49,-229,3,-54,30,101,-75
84,-48,-235,4,-55,43,109,-84
85,-49,-237,10,-47,36,105,-92
92,-40,-245,2,-51,32,106,-94
91,-54,-241,-1,-57,23,97,-93
87,-51,-235,2,-59,39,94,-79
85,-46,-221,5,-48,37,99,-71
97,-49,-200,0,-54,31,102,-71
93,-53,-185,6,-56,53,108,-71
96,-42,-186,5,-55,40,100,-74
89,-47,-191,2,-61,44,99,-75
90,-55,-192,-4,-58,40,101,-77
85,-44,-193,6,-60,49,93,-94
92,-51,-197,1,-55,40,97,-102
86,-48,-191,0,-55,41,98,-93
82,-49,-193,4,-52,41,106,-76
88,-43,-192,8,-52,44,103,-52
87,-48,-189,5,-56,40,101,-54
86,-49,-187,-2,-61,39,101,-55
85,-48,-198,5,-60,30,94,-66
98,-50,-204,3,-61,27,94,-76
90,-53,-207,3,-59,28,107,-85
92,-52,-205,3,-51,42,111,-84
103,-43,-195,5,-52,31,108,-90
97,-46,-192,7,-51,38,109,-95
94,-51,-186,4,-54,36,107,-86
85,-44,-189,3,-60,40,90,-74
86,-49,-184,2,-60,25,101,-62
81,-50,-179,3,-57,38,103,-68
78,-46,-166,5,-51,46,97,-70
85,-43,-171,3,-54,36,105,-78
82,-52,-181,3,-59,36,107,-75
77,-50,-200,1,-51,39,98,-77
75,-45,-218,3,-58,38,89,-79
69,-47,-231,2,-60,36,103,-82
79,-57,-238,2,-51,40,99,-76
85,-40,-219,4,-55,47,100,-80
91,-43,-218,3,-51,36,104,-77
89,-58,-197,6,-53,43,106,-79
89,-46,-180,0,-58,40,106,-82
88,-47,-173,2,-55,37,102,-83
85,-49,-168,4,-57,33,98,-80
87,-50,-164,8,-52,45,104,-82
93,-43,-162,6,-50,48,101,-85
100,-46,-160,0,-56,35,96,-80
89,-54,-160,1,-60,37,101,-84
91,-45,-156,1,-55,41,93,-88
98,-46,-144,5,-50,51,100,-80
105,-47,-151,8,-48,40,108,-75
98,-47,-147,9,-50,42,107,-62
96,-44,-168,4,-53,43,93,-61
90,-42,-185,0,-59,31,98,-56
88,-51,-193,3,-58,44,100,-73
83,-44,-195,2,-55,37,105,-106
91,-46,-194,8,-55,36,104,-106
93,-47,-192,6,-51,32,102,-103
91,-50,-196,4,-52,52,115,-91
89,-42,-199,0,-58,36,101,-80
91,-48,-195,2,-60,32,104,-69
89,-49,-185,6,-55,44,108,-68
88,-43,-177,3,-62,32,100,-71
85,-48,-175,2,-58,40,105,-71
87,-54,-172,3,-58,33,103,-64
87,-48,-174,8,-50,37,108,-76
92,-43,-202,1,-59,34,99,-70
86,-52,-219,2,-57,32,98,-72
84,-49,-235,1,-59,46,104,-76
84,-46,-239,2,-56,33,104,-90
90,-45,-246,0,-53,36,109,-96
93,-53,-246,6,-54,39,108,-98
91,-45,-250,1,-54,40,107,-83
90,-43,-251,2,-52,40,101,-62
87,-51,-248,6,-58,35,113,-49
94,-47,-251,4,-51,49,95,-50
93,-50,-250,2,-51,40,110,-61
91,-47,-241,7,-53,29,105,-65
81,-51,-235,5,-54,57,100,-79
84,-43,-227,6,-52,45,111,-92
88,-47,-228,5,-51,40,100,-94
86,-45,-219,3,-48,38,115,-80
93,-49,-209,7,-50,40,109,-76
87,-40,-205,2,-54,31,107,-64
84,-51,-206,5,-56,55,102,-64
78,-49,-193,1,-63,34,99,-69
86,-44,-181,5,-52,42,101,-72
94,-47,-165,1,-52,47,111,-70
101,-47,-144,10,-52,40,117,-77
95,-41,-138,7,-44,49,107,-92
96,-43,-144,4,-57,44,96,-91
85,-53,-154,1,-58,37,88,-95
78,-48,-165,2,-59,29,90,-90
80,-50,-174,1,-58,37,80,-85
83,-51,-186,1,-53,41,106,-71
93,-50,-188,6,-50,36,126,-70
89,-44,-190,1,-54,40,114,-75
88,-47,-200,2,-64,30,117,-76
81,-57,-200,-1,-63,33,113,-76
84,-52,-202,2,-59,31,100,-81
86,-48,-191,1,-59,40,101,-76
91,-50,-179,7,-53,41,106,-72
97,-45,-171,7,-47,34,102,-71
93,-39,-166,5,-46,32,99,-81
81,-53,-157,-1,-57,38,94,-83
76,-53,-153,0,-68,39,97,-78
83,-45,-136,7,-67,38,103,-75
85,-45,-130,4,-89,40,115,-73
91,-49,-143,9,-107,44,111,-72
87,-47,-165,0,-108,29,118,-78
87,-47,-182,3,-82,41,106,-77
81,-48,-194,4,-48,34,103,-77
82,-55,-201,-1,-21,32,111,-76
83,-46,-208,7,-4,35,113,-78
91,-44,-216,5,-13,36,108,-81
86,-50,-225,6,-25,46,104,-80
80,-46,-220,1,-42,26,103,-69
80,-52,-218,2,-49,34,99,-65
90,-55,-198,3,-50,37,106,-55
93,-51,-168,2,-46,41,108,-57
103,-47,-164,1,-48,49,107,-72
96,-45,-167,5,-61,34,103,-96
92,-53,-180,-2,-71,30,96,-87
91,-46,-195,0,-66,36,99,-95
89,-45,-221,4,-66,39,95,-87
91,-53,-229,-2,-65,26,102,-79
95,-48,-223,2,-55,35,109,-75
97,-44,-219,2,-67,27,97,-80
83,-52,-211,5,-64,33,107,-71
80,-49,-205,-1,-64,33,102,-78
83,-50,-191,-1,-71,25,108,-77
78,-47,-184,5,-66,28,104,-72
83,-55,-170,2,-60,41,115,-71
84,-46,-169,4,-61,28,112,-74
89,-48,-170,1,-59,37,107,-72
81,-50,-177,1,-59,40,108,-73
84,-52,-176,-1,-53,38,114,-72
83,-47,-189,0,-59,33,109,-75
84,-47,-193,0,-62,31,102,-75
82,-54,-203,6,-56,35,119,-74
84,-50,-198,3,-52,38,107,-76
83,-46,-202,3,-59,38,106,-74
82,-47,-195,4,-56,40,102,-73
80,-46,-195,1,-59,25,87,-74
86,-49,-200,5,-61,36,93,-74
96,-51,-191,4,-54,39,81,-74
96,-44,-182,7,-52,35,87,-78
98,-51,-172,2,-63,33,84,-82
95,-48,-159,-1,-61,28,74,-75
91,-55,-137,2,-68,49,89,-80
90,-49,-117,-1,-52,26,101,-78
90,-44,-107,7,-56,44,110,-76
91,-50,-100,1,-58,30,129,-73
88,-52,-98,0,-58,30,132,-78
79,-44,-104,0,-63,30,122,-76
83,-49,-101,0,-59,26,120,-78
84,-52,-93,3,-60,28,120,-73
92,-44,-85,3,-60,33,125,-77
87,-48,-83,3,-60,24,116,-79
93,-52,-79,0,-60,34,114,-78
87,-55,-79,3,-61,31,123,-76
90,-44,-90,1,-58,28,113,-75
98,-43,-103,1,-62,47,110,-71
100,-50,-115,6,-52,35,100,-70
96,-46,-127,7,-58,29,99,-79
96,-47,-146,3,-63,37,103,-68
91,-49,-159,2,-59,35,93,-69
96,-51,-173,3,-60,34,100,-78
96,-43,-175,3,-62,32,105,-72
96,-49,-192,2,-55,36,100,-71
91,-48,-191,0,-54,38,108,-78
78,-43,-205,6,-61,34,93,-74
74,-45,-212,0,-57,31,111,-79
67,-53,-213,2,-56,34,104,-76
66,-48,-202,5,-60,27,108,-77
68,-43,-185,2,-57,39,110,-72
76,-52,-165,5,-59,41,110,-69
85,-45,-148,3,-53,25,106,-74
88,-47,-154,1,-61,36,103,-75
100,-51,-159,-1,-63,28,97,-69
102,-55,-160,11,-58,33,103,-68
117,-47,-156,4,-60,38,108,-79
113,-41,-148,5,-56,34,100,-89
103,-54,-143,2,-59,30,90,-93
94,-47,-138,3,-63,28,93,-91
84,-53,-142,-3,-60,31,88,-84
79,-49,-125,-1,-61,39,95,-65
80,-53,-131,0,-59,39,103,-71
83,-48,-134,6,-57,29,103,-70
76,-49,-148,-1,-57,34,101,-66
77,-49,-153,3,-66,24,106,-75
79,-45,-153,3,-58,25,106,-78
82,-51,-151,3,-62,29,108,-96
84,-54,-139,2,-58,40,110,-91
91,-45,-136,3,-49,29,121,-87
99,-41,-133,8,-55,30,121,-68
101,-47,-132,4,-51,39,108,-48
100,-48,-135,4,-52,38,104,-47
97,-44,-138,5,-63,36,101,-58
89,-46,-145,6,-58,32,99,-60
84,-52,-152,1,-63,32,103,-68
79,-45,-152,6,-59,29,122,-72
84,-44,-167,9,-54,37,108,-77
90,-49,-167,4,-58,32,105,-92
77,-49,-172,1,-61,24,104,-102
75,-48,-167,0,-64,33,96,-95
75,-51,-160,-2,-61,35,97,-74
83,-50,-128,4,-53,27,109,-60
95,-49,-100,10,-53,36,112,-67
95,-47,-98,4,-56,36,103,-69
93,-51,-91,-1,-58,18,97,-67
86,-54,-89,4,-66,29,106,-77
84,-47,-82,0,-62,23,101,-76
84,-60,-83,1,-62,33,106,-73
95,-48,-71,6,-54,40,112,-73
96,-47,-67,5,-57,34,120,-75
95,-48,-69,3,-60,24,108,-71
88,-51,-74,2,-63,29,104,-75
85,-54,-74,-1,-63,24,100,-73
84,-46,-76,5,-59,35,106,-73
93,-49,-79,4,-53,28,109,-66
96,-49,-83,2,-55,29,108,-69
95,-45,-96,5,-54,34,102,-74
92,-49,-104,4,-59,34,105,-77
85,-54,-102,1,-59,28,104,-86
84,-46,-95,6,-53,32,103,-94
85,-50,-92,4,-50,25,108,-87
85,-48,-85,5,-49,33,107,-88
82,-51,-83,2,-44,31,111,-72
82,-43,-90,7,-59,29,97,-51
75,-49,-95,-3,-64,38,107,-28
79,-46,-101,2,-85,18,110,-30
84,-48,-116,6,-111,32,106,-68
95,-48,-127,4,-120,41,105,-116
88,-46,-139,5,-98,24,109,-118
90,-48,-153,1,-61,26,94,-103
88,-49,-162,6,-32,32,95,-69
81,-51,-183,3,-16,20,94,-49
84,-48,-195,-5,-26,19,95,-49
82,-50,-203,-1,-31,33,89,-55
88,-54,-207,-1,-39,24,104,-73
95,-50,-205,3,-45,30,93,-85
92,-50,-205,-2,-47,28,95,-94
86,-55,-191,1,-57,22,92,-88
85,-57,-176,-3,-64,19,94,-81
88,-52,-150,1,-62,33,105,-80
90,-51,-136,-2,-66,27,93,-74
93,-49,-112,10,-61,30,118,-75
101,-48,-93,7,-58,28,113,-71
102,-46,-71,8,-59,39,107,-69
98,-49,-63,5,-60,29,104,-73
92,-46,-56,4,-67,24,103,-67
96,-48,-44,8,-59,49,108,-69
100,-47,-34,12,-54,32,109,-62
97,-45,-27,10,-55,39,111,-71
90,-42,-13,10,-56,36,107,-69
86,-40,-14,4,-60,42,104,-73
81,-50,-23,9,-58,38,101,-71
86,-47,-36,6,-56,29,105,-91
85,-45,-51,6,-56,44,105,-95
80,-54,-69,4,-59,36,92,-96
80,-49,-77,3,-62,27,106,-88
74,-46,-91,6,-60,28,102,-73
73,-45,-91,-1,-58,31,103,-54
84,-56,-87,4,-54,28,117,-53
86,-49,-92,3,-58,32,108,-66
84,-46,-99,-1,-59,26,99,-82
80,-54,-93,-1,-60,27,103,-89
87,-59,-96,3,-63,19,107,-93
90,-45,-101,5,-50,25,102,-71
102,-48,-106,-1,-63,18,103,-63
100,-48,-104,6,-57,31,97,-63
97,-46,-108,5,-55,26,105,-64
97,-53,-109,4,-60,27,88,-68
87,-43,-110,1,-58,24,105,-65
90,-52,-104,3,-60,33,118,-69
84,-44,-108,8,-59,34,116,-69
90,-47,-103,4,-55,36,125,-70
92,-48,-99,6,-57,31,125,-87
95,-43,-95,10,-54,39,109,-95
88,-51,-99,4,-61,27,103,-89
90,-52,-102,3,-59,43,112,-80
87,-41,-98,10,-51,25,98,-75
99,-43,-85,8,-54,40,101,-73
102,-45,-62,5,-49,38,93,-67
102,-48,-41,11,-47,31,84,-63
95,-42,-39,6,-57,38,83,-76
90,-45,-42,7,-57,32,86,-66
87,-47,-62,-2,-62,27,92,-68
87,-46,-83,-1,-60,29,96,-83
85,-44,-115,4,-61,34,92,-75
83,-53,-147,-3,-62,15,90,-76
74,-53,-165,4,-62,29,106,-82
81,-52,-164,8,-57,25,127,-77
85,-49,-157,4,-65,27,132,-77
86,-53,-150,-2,-58,24,125,-74
85,-52,-139,5,-65,18,125,-85
88,-48,-138,1,-62,28,109,-81
90,-55,-134,0,-61,30,117,-75
87,-51,-140,3,-58,30,118,-80
90,-50,-145,2,-53,31,132,-75
87,-49,-145,2,-56,20,116,-79
88,-48,-143,5,-59,27,108,-80
89,-50,-139,1,-58,26,99,-80
88,-50,-131,6,-58,36,92,-71
85,-47,-120,4,-55,24,98,-67
91,-48,-114,6,-51,32,93,-67
87,-41,-104,11,-54,36,90,-67
87,-52,-99,3,-53,37,97,-70
87,-50,-97,7,-57,31,89,-88
89,-44,-106,6,-53,31,97,-90
96,-51,-110,4,-55,30,84,-82
90,-56,-130,6,-59,34,92,-83
94,-46,-134,1,-52,44,82,-76
97,-47,-149,6,-56,20,74,-90
90,-55,-142,3,-54,33,80,-92
82,-49,-138,2,-57,33,79,-96
86,-49,-133,6,-58,36,84,-88
82,-49,-127,1,-55,37,102,-78
89,-51,-121,3,-53,34,122,-68
90,-49,-116,3,-56,24,111,-68
84,-48,-104,8,-63,31,112,-73
88,-52,-85,5,-53,27,120,-74
89,-49,-80,-1,-60,33,116,-78
86,-46,-54,0,-60,29,119,-85
87,-56,-45,-1,-58,38,128,-95
91,-45,-35,3,-57,26,131,-95
91,-43,-41,5,-51,27,123,-90
89,-50,-56,-2,-59,28,117,-67
88,-52,-69,4,-52,32,116,-54
90,-51,-77,0,-55,42,102,-57
86,-47,-85,7,-57,34,111,-55
90,-46,-89,-4,-55,33,107,-70
84,-51,-108,4,-57,34,103,-75
86,-51,-122,2,-57,35,98,-84
81,-46,-146,2,-53,46,86,-88
85,-44,-170,4,-60,33,88,-98
80,-50,-197,1,-57,40,94,-90
82,-47,-214,4,-52,40,89,-86
82,-55,-224,2,-48,29,103,-67
86,-48,-222,0,-39,42,85,-68
81,-49,-203,5,-47,22,100,-66
81,-49,-187,5,-52,29,99,-70
71,-49,-175,4,-72,32,95,-73
77,-49,-162,1,-103,31,93,-78
80,-47,-149,2,-122,26,108,-81
88,-49,-142,3,-125,14,95,-78
85,-51,-146,1,-78,23,88,-82
97,-50,-142,5,-43,35,88,-78
92,-54,-140,0,-18,20,99,-77
91,-49,-133,3,-22,16,92,-75
98,-47,-130,1,-61,44,90,-81
96,-52,-136,5,-107,21,100,-81
100,-45,-142,2,-57,30,86,-84
96,-51,-160,2,-25,40,91,-94
90,-49,-168,1,-11,29,96,-93
88,-51,-163,2,-9,34,103,-88
91,-46,-159,5,-15,35,120,-88
91,-46,-155,4,-30,44,131,-85
84,-47,-157,2,-45,26,144,-80
84,-50,-153,4,-51,42,134,-72
87,-46,-151,6,-51,38,113,-57
92,-47,-151,8,-57,36,100,-54
89,-47,-139,5,-53,39,89,-53
89,-47,-143,2,-67,32,78,-69
87,-52,-144,1,-66,25,79,-102
83,-50,-161,3,-56,37,106,-98
91,-48,-183,7,-60,33,107,-101
96,-45,-213,3,-54,35,107,-89
93,-47,-241,4,-56,34,98,-82
90,-49,-263,2,-60,30,87,-78
97,-50,-270,4,-58,31,83,-79
91,-48,-269,2,-62,37,77,-79
90,-47,-253,3,-57,42,80,-76
97,-50,-213,4,-52,38,63,-75
96,-41,-188,3,-55,42,80,-79
93,-54,-175,1,-62,30,77,-86
86,-50,-165,4,-60,36,103,-86
87,-46,-153,3,-66,34,113,-102
84,-50,-143,-1,-63,39,146,-92
82,-50,-123,0,-61,38,150,-82
90,-46,-106,5,-52,30,141,-78
85,-41,-103,0,-59,48,141,-71
87,-45,-107,2,-57,31,125,-60
77,-49,-121,6,-69,44,126,-68
73,-48,-132,3,-68,43,120,-100
76,-50,-140,-3,-60,39,107,-108
84,-53,-144,4,-55,36,110,-97
87,-47,-162,5,-54,48,99,-91
87,-47,-171,8,-59,41,92,-60
84,-49,-180,0,-64,32,90,-43
80,-51,-186,0,-62,39,81,-54
80,-55,-187,2,-72,38,90,-60
79,-50,-193,-2,-81,35,81,-61
78,-43,-189,5,-82,31,95,-72
81,-49,-197,3,-52,41,86,-79
82,-50,-199,4,-35,31,81,-82
77,-51,-193,3,-29,39,93,-82
85,-51,-203,3,-30,39,82,-77
89,-48,-204,6,-38,41,94,-82
92,-48,-211,-1,-40,33,96,-82
94,-52,-215,5,-49,41,105,-90
99,-47,-217,7,-53,46,109,-84
97,-48,-228,2,-55,27,97,-80
98,-52,-233,1,-54,35,98,-82
99,-49,-240,5,-55,48,100,-90
95,-44,-247,-2,-53,35,106,-79
89,-48,-254,0,-62,33,117,-78
87,-51,-261,3,-59,35,95,-76
89,-50,-269,0,-59,47,106,-73
87,-51,-262,3,-57,33,116,-73
87,-51,-259,0,-59,38,104,-75
87,-48,-251,4,-57,32,107,-73
86,-47,-239,2,-61,44,104,-74
82,-49,-229,0,-64,33,90,-81
87,-53,-226,-4,-62,37,100,-78
86,-46,-218,4,-59,40,100,-79
88,-48,-222,2,-56,35,105,-72
96,-49,-213,0,-55,38,108,-77
98,-43,-205,11,-57,41,101,-81
93,-53,-191,1,-59,32,94,-83
100,-46,-185,2,-58,37,96,-83
103,-52,-172,-1,-60,44,100,-90
98,-50,-165,2,-61,34,98,-87
91,-56,-172,2,-58,37,98,-83
92,-54,-184,-5,-64,44,106,-80
82,-43,-194,3,-58,35,100,-79
78,-52,-195,-3,-58,38,109,-72
84,-50,-195,2,-51,43,109,-73
85,-48,-193,3,-56,47,107,-72
80,-52,-201,2,-54,37,94,-79
76,-49,-204,2,-65,33,106,-70
82,-48,-200,5,-54,48,98,-76
81,-46,-203,11,-49,38,105,-75
89,-46,-195,5,-51,35,107,-69
90,-48,-201,1,-51,36,100,-86
83,-49,-209,3,-57,38,103,-99
81,-49,-201,1,-57,31,101,-108
80,-54,-192,1,-52,37,104,-99
83,-49,-181,2,-56,30,112,-83
87,-46,-179,3,-57,46,106,-64
84,-50,-176,3,-59,38,106,-52
89,-56,-180,1,-56,33,97,-60
85,-44,-178,2,-52,43,96,-67
89,-51,-173,2,-53,39,100,-78
88,-48,-170,2,-57,45,103,-83
88,-51,-179,-1,-57,39,99,-88
90,-49,-182,2,-50,46,99,-87
95,-48,-190,-1,-48,42,110,-80
96,-54,-190,-2,-52,50,105,-82
96,-45,-176,2,-52,45,103,-85
93,-50,-157,4,-52,37,107,-83
95,-49,-144,0,-55,39,100,-76
86,-47,-130,4,-48,46,99,-75
90,-45,-121,6,-59,41,107,-75
86,-47,-132,4,-52,38,99,-75
87,-51,-148,5,-51,27,95,-82
85,-43,-179,2,-59,45,98,-79
85,-48,-206,1,-57,35,93,-77
87,-48,-223,2,-53,30,96,-76
90,-41,-220,6,-52,48,109,-81
92,-48,-221,1,-48,34,109,-77
95,-49,-223,-2,-58,26,109,-81
85,-48,-221,2,-56,43,115,-81
90,-46,-206,3,-56,34,112,-78
90,-47,-190,1,-54,43,109,-75
90,-51,-188,2,-52,40,96,-77
95,-45,-188,3,-53,41,112,-79
93,-44,-196,1,-56,40,98,-79
94,-55,-195,2,-45,41,101,-76
92,-43,-196,6,-53,44,99,-77
93,-44,-193,0,-57,43,98,-79
88,-52,-194,6,-58,38,90,-73
96,-46,-191,3,-49,38,96,-81
92,-44,-171,7,-53,41,104,-83
92,-46,-156,3,-52,30,102,-74
93,-47,-145,1,-54,53,110,-77
90,-49,-147,4,-56,34,107,-81
86,-49,-148,-5,-61,35,88,-82
88,-49,-161,1,-57,30,105,-79
88,-55,-168,1,-54,45,101,-77
89,-45,-180,1,-56,38,108,-78
86,-47,-185,2,-51,31,105,-65
79,-55,-187,1,-60,35,105,-66
78,-46,-181,3,-51,36,107,-66
82,-51,-168,2,-47,48,107,-61
88,-48,-159,7,-49,37,106,-82
89,-43,-155,7,-45,38,99,-92
88,-45,-144,0,-55,54,101,-99
86,-47,-136,1,-57,32,97,-84
83,-52,-116,5,-54,43,97,-83
91,-44,-92,7,-48,37,109,-80
93,-44,-64,-1,-52,47,109,-70
92,-45,-63,5,-54,34,106,-76
89,-51,-74,6,-56,41,105,-80
87,-43,-91,0,-55,37,105,-75
94,-50,-109,3,-62,32,108,-71
89,-51,-118,-2,-50,37,101,-75
88,-46,-137,2,-56,31,102,-77
90,-50,-159,1,-58,34,104,-71
85,-54,-173,3,-55,39,101,-80
89,-50,-195,-1,-53,43,100,-85
92,-47,-220,2,-53,32,105,-87
86,-50,-243,-2,-59,40,93,-83
85,-48,-263,4,-52,51,99,-73
89,-47,-270,-1,-53,35,99,-88
91,-51,-272,0,-54,34,101,-85
88,-49,-257,2,-50,44,94,-80
86,-50,-232,4,-55,36,106,-89
83,-49,-210,0,-61,42,97,-79
88,-50,-176,2,-53,49,109,-71
87,-47,-153,9,-48,38,108,-71
91,-52,-145,4,-49,39,114,-72
91,-47,-145,-3,-55,32,104,-71
83,-51,-147,4,-55,23,97,-74
84,-49,-147,-2,-63,28,98,-88
81,-51,-147,-1,-57,38,106,-91
89,-50,-145,3,-55,27,111,-89
93,-49,-139,3,-54,35,107,-75
95,-44,-131,1,-53,31,111,-49
91,-49,-138,-3,-55,39,96,-44
93,-48,-142,4,-54,34,108,-46
91,-48,-157,6,-57,41,103,-55
88,-49,-163,-1,-55,29,101,-68
83,-47,-177,-2,-55,34,103,-76
93,-46,-179,8,-56,32,109,-86
91,-44,-176,1,-48,40,110,-94
92,-48,-173,7,-59,30,106,-104
85,-49,-161,3,-57,37,98,-107
78,-55,-162,2,-63,26,102,-89
80,-50,-159,-2,-62,47,102,-71
85,-46,-149,4,-54,38,103,-72
86,-55,-148,4,-59,45,104,-66
91,-47,-160,2,-56,37,102,-64
87,-50,-177,0,-59,47,96,-79
82,-55,-198,0,-58,39,100,-87
78,-46,-208,1,-63,43,95,-79
84,-56,-205,1,-54,36,110,-84
87,-46,-184,1,-48,37,102,-79
86,-50,-163,4,-48,35,113,-80
92,-44,-131,5,-45,53,106,-77
87,-53,-99,7,-42,29,106,-84
83,-50,-83,1,-47,31,101,-78
89,-47,-77,1,-64,42,102,-79
87,-50,-78,2,-75,36,101,-82
89,-47,-86,10,-96,34,109,-78
92,-44,-100,9,-128,37,111,-75
93,-48,-110,0,-107,42,109,-80
91,-43,-125,5,-57,34,103,-79
85,-50,-132,2,-29,38,102,-79
85,-47,-139,2,-18,34,100,-87
87,-54,-132,4,-23,34,99,-77
87,-49,-126,5,-24,36,97,-65
87,-48,-120,5,-29,35,106,-56
90,-48,-117,3,-32,35,105,-57
85,-49,-116,4,-41,31,93,-81
89,-49,-113,-1,-52,33,95,-103
88,-52,-121,4,-55,38,89,-103
87,-50,-130,3,-55,35,101,-98
88,-43,-120,3,-63,20,94,-82
93,-50,-121,2,-63,39,110,-84
89,-46,-126,2,-61,37,106,-81
87,-51,-124,-2,-63,30,108,-75
88,-51,-124,1,-64,39,110,-70
91,-50,-120,3,-59,39,108,-74
93,-47,-127,7,-59,34,113,-73
89,-48,-137,5,-58,35,110,-69
91,-49,-152,1,-61,36,109,-81
88,-48,-173,5,-64,35,99,-78
89,-48,-181,2,-59,38,109,-76
93,-52,-181,1,-55,35,111,-70
92,-42,-183,6,-48,49,106,-72
94,-44,-185,6,-54,31,108,-79
91,-49,-186,4,-51,37,104,-68
87,-41,-197,3,-60,38,100,-79
87,-49,-204,4,-57,30,95,-79
87,-50,-204,4,-55,44,101,-74
91,-50,-208,3,-59,35,101,-76
88,-48,-198,2,-58,34,103,-77
91,-48,-190,2,-59,40,96,-77
84,-48,-183,5,-58,32,110,-73
84,-48,-174,-1,-61,34,98,-81
84,-54,-170,4,-56,36,99,-81
88,-46,-149,5,-52,32,108,-73
88,-47,-132,2,-54,38,103,-73
92,-49,-121,3,-54,37,106,-78
93,-46,-106,5,-57,37,97,-80
89,-48,-106,1,-54,23,104,-81
90,-49,-97,1,-62,38,100,-81
84,-49,-81,6,-57,40,103,-79
88,-48,-83,4,-56,42,92,-68
88,-51,-93,1,-56,37,110,-70
91,-45,-110,5,-58,36,98,-71
84,-53,-131,1,-61,27,101,-70
82,-48,-153,-3,-58,33,97,-77
81,-52,-157,0,-61,37,94,-83
84,-52,-163,8,-57,27,104,-82
89,-45,-161,2,-53,30,108,-80
93,-47,-168,3,-55,25,95,-87
90,-50,-166,5,-55,38,106,-82
86,-49,-170,1,-60,31,100,-77
83,-47,-171,1,-65,26,94,-77
91,-50,-173,7,-57,34,105,-71
87,-50,-170,7,-55,32,100,-69
93,-47,-165,3,-53,39,117,-70
92,-45,-157,1,-53,32,104,-66
89,-50,-151,7,-65,35,108,-74
87,-46,-141,-1,-61,32,96,-76
85,-51,-137,-1,-61,32,90,-80
82,-49,-135,5,-60,41,111,-77
90,-47,-138,0,-55,42,110,-83
92,-47,-141,2,-58,27,112,-78
88,-51,-155,5,-53,37,106,-75
85,-42,-161,4,-58,37,103,-78
85,-48,-168,5,-61,31,108,-79
87,-45,-168,-3,-55,24,113,-78
85,-53,-157,6,-53,32,107,-77
89,-48,-147,5,-59,40,109,-75
91,-52,-133,1,-54,23,110,-76
87,-50,-115,4,-60,38,98,-74
91,-40,-111,4,-55,40,113,-77
94,-50,-122,0,-57,27,107,-78
92,-49,-133,3,-53,29,103,-78
90,-47,-142,3,-54,40,107,-78
90,-42,-176,7,-55,23,106,-74
85,-52,-194,2,-63,33,95,-79
89,-52,-198,6,-55,31,99,-76
89,-42,-195,3,-62,23,106,-76
92,-54,-190,4,-56,35,107,-75
88,-49,-182,4,-63,33,99,-74
86,-46,-187,5,-57,38,105,-78
90,-47,-197,4,-61,26,106,-69
86,-52,-211,0,-54,31,105,-81
90,-52,-211,6,-57,36,111,-76
89,-47,-210,5,-56,43,103,-75
89,-54,-207,2,-62,30,107,-75
85,-50,-196,3,-58,34,96,-77
90,-46,-187,7,-56,38,110,-72
86,-51,-170,2,-61,25,105,-74
88,-50,-151,7,-49,36,114,-75
91,-46,-147,1,-54,39,107,-74
91,-47,-138,6,-63,35,107,-67
86,-48,-132,4,-57,37,101,-78
85,-51,-128,6,-62,31,98,-79
91,-51,-123,5,-58,36,106,-73
92,-48,-131,5,-54,27,115,-78
95,-47,-141,2,-54,41,93,-78
90,-51,-145,2,-58,31,95,-70
91,-39,-151,8,-58,40,106,-76
84,-54,-145,-2,-59,23,95,-76
91,-47,-141,7,-61,41,93,-78
91,-47,-132,2,-58,32,115,-74
94,-44,-128,6,-56,35,103,-78
91,-50,-128,4,-55,39,120,-82
91,-48,-130,-1,-64,32,116,-76
87,-45,-122,8,-53,34,113,-80
93,-52,-114,6,-62,33,110,-83
91,-43,-107,5,-60,38,105,-76
85,-44,-102,6,-66,31,107,-79
89,-54,-91,4,-64,31,97,-80
88,-48,-93,8,-63,44,100,-78
90,-45,-107,-1,-54,35,114,-77
90,-46,-124,-3,-64,38,105,-77
85,-49,-137,3,-61,32,102,-77
88,-45,-147,1,-54,40,110,-75
97,-44,-160,4,-56,41,105,-74
89,-51,-172,-2,-55,28,108,-76
91,-53,-182,4,-60,34,109,-75
87,-46,-197,2,-66,32,108,-78
87,-44,-208,5,-58,23,109,-78
87,-58,-215,4,-61,30,104,-73
91,-46,-216,3,-53,39,109,-75
94,-46,-223,4,-54,19,105,-71
91,-50,-226,0,-60,47,79,-81
85,-47,-203,-1,-62,28,80,-74
83,-48,-182,2,-62,32,69,-77
82,-48,-168,0,-66,26,76,-78
82,-57,-156,1,-60,35,89,-76
86,-46,-145,7,-58,41,115,-73
96,-47,-141,2,-58,32,142,-72
86,-50,-132,7,-56,32,146,-74
92,-48,-128,0,-60,42,167,-73
89,-45,-125,4,-61,38,137,-77
88,-49,-122,5,-57,33,126,-77
93,-49,-129,6,-60,40,120,-75
89,-46,-136,7,-57,23,118,-72
91,-43,-146,5,-60,32,110,-73
87,-50,-160,3,-67,32,115,-80
84,-51,-174,1,-63,25,96,-79
87,-46,-188,-1,-60,22,100,-78
86,-51,-192,3,-63,19,91,-80
87,-50,-196,4,-51,39,92,-73
88,-49,-193,-3,-64,29,99,-75
85,-47,-193,-1,-60,25,77,-75
85,-53,-189,5,-58,36,102,-72
84,-49,-187,3,-62,22,95,-76
87,-44,-170,-2,-60,30,102,-74
88,-52,-146,7,-54,30,102,-73
96,-48,-137,11,-50,29,110,-74
95,-42,-136,1,-52,32,101,-82
89,-53,-155,5,-62,27,97,-87
78,-50,-178,3,-64,38,90,-89
81,-48,-196,2,-57,35,123,-89
94,-49,-195,5,-55,25,100,-76
93,-48,-190,7,-45,40,115,-75
94,-47,-170,12,-43,40,111,-67
90,-43,-161,2,-49,31,107,-72
81,-52,-128,7,-53,28,95,-74
81,-53,-105,6,-47,41,105,-75
87,-45,-87,5,-55,26,114,-73
92,-46,-79,2,-60,42,118,-74
94,-46,-74,13,-86,26,111,-75
89,-47,-80,-1,-126,33,106,-77
85,-51,-87,-1,-124,26,102,-76
81,-52,-77,1,-85,34,112,-78
89,-54,-73,5,-45,33,110,-75
92,-38,-72,-2,-27,36,116,-71
89,-48,-84,2,-34,37,102,-75
92,-53,-97,5,-30,28,98,-76
85,-47,-108,3,-43,26,100,-73
80,-51,-122,-1,-35,30,100,-78
84,-53,-123,5,-35,37,100,-74
89,-48,-127,6,-40,41,108,-68
95,-40,-129,4,-41,30,102,-74
91,-46,-132,6,-54,35,98,-80
91,-52,-142,4,-56,31,98,-85
84,-44,-139,1,-72,30,96,-80
82,-47,-129,6,-63,33,105,-81
90,-53,-128,7,-56,36,104,-75
91,-46,-118,1,-65,25,112,-68
97,-44,-111,5,-61,32,103,-77
89,-48,-113,-1,-59,26,102,-81
85,-52,-133,1,-70,37,95,-78
83,-47,-144,0,-72,30,95,-78
80,-53,-146,2,-58,26,102,-78
91,-52,-149,4,-64,38,109,-72
92,-45,-155,5,-55,27,94,-80
87,-47,-164,0,-60,35,101,-86
94,-50,-174,8,-56,31,97,-92
85,-51,-177,1,-56,28,93,-90
85,-49,-185,1,-63,35,100,-83
85,-49,-200,2,-59,22,98,-80
89,-55,-204,4,-55,29,101,-66
91,-41,-205,6,-51,32,108,-66
94,-44,-199,1,-52,35,93,-67
86,-53,-187,6,-59,36,104,-72
84,-49,-177,1,-62,30,88,-77
84,-43,-160,2,-59,28,105,-73
86,-54,-136,6,-54,44,103,-77
95,-50,-119,4,-52,30,112,-71
98,-43,-109,6,-52,40,109,-72
92,-47,-105,7,-56,45,94,-79
86,-50,-105,2,-58,40,100,-77
83,-49,-101,0,-63,28,96,-79
86,-41,-88,3,-52,49,101,-70
94,-46,-81,8,-47,38,111,-72
97,-49,-86,6,-55,44,106,-74
93,-42,-105,7,-53,41,104,-71
87,-45,-126,4,-58,32,105,-73
91,-52,-151,6,-50,41,103,-78
93,-39,-163,1,-55,29,96,-69
86,-52,-177,4,-58,38,101,-79
82,-52,-192,2,-60,35,108,-69
91,-44,-183,8,-56,36,102,-73
88,-43,-182,10,-51,31,100,-82
92,-48,-181,4,-49,37,96,-74
87,-55,-188,3,-58,32,100,-78
82,-47,-190,-1,-57,23,91,-72
81,-49,-187,3,-58,39,93,-74
84,-47,-192,3,-59,26,99,-84
88,-46,-185,-2,-56,34,104,-80
91,-47,-168,6,-53,36,100,-88
91,-55,-155,2,-54,36,98,-85
86,-49,-163,-1,-59,33,92,-85
80,-42,-158,0,-59,32,100,-84
87,-56,-147,4,-55,36,100,-76
92,-45,-144,6,-52,34,103,-75
96,-40,-149,3,-55,35,111,-73
90,-47,-164,6,-49,38,103,-77
94,-50,-176,8,-57,34,97,-74
90,-46,-186,5,-55,41,105,-74
89,-44,-192,3,-55,37,98,-82
87,-53,-205,8,-58,36,106,-71
90,-41,-194,5,-56,40,101,-72
91,-45,-185,5,-53,38,102,-80
90,-47,-165,4,-57,34,99,-78
89,-55,-163,4,-63,46,100,-73
85,-46,-153,1,-57,30,103,-74
90,-41,-164,3,-59,39,104,-78
86,-52,-166,4,-54,22,98,-79
87,-51,-192,1,-60,40,102,-78
85,-49,-218,-5,-61,24,93,-80
83,-56,-240,2,-60,29,93,-80
80,-46,-244,-2,-57,36,97,-80
84,-54,-246,1,-58,19,97,-82
82,-50,-238,-2,-56,34,96,-77
85,-53,-233,3,-57,23,94,-83
90,-49,-232,1,-58,36,94,-81
86,-49,-229,-3,-54,30,98,-82
84,-55,-225,3,-55,42,97,-82
90,-45,-220,4,-53,37,96,-87
89,-53,-209,4,-51,35,97,-82
89,-44,-202,-1,-51,44,94,-81
83,-53,-198,5,-56,40,102,-81
91,-47,-195,0,-53,49,90,-82
85,-52,-190,9,-51,30,100,-82
88,-53,-187,1,-52,49,108,-74
97,-41,-180,9,-43,32,108,-72
93,-46,-160,7,-57,42,109,-74
87,-48,-156,4,-55,37,98,-77
87,-50,-150,3,-57,40,101,-76
88,-47,-152,8,-57,38,108,-74
85,-49,-168,3,-52,40,96,-80
84,-55,-184,2,-53,43,111,-71
89,-49,-207,3,-57,33,109,-76
84,-46,-216,-3,-58,41,103,-76
82,-53,-206,2,-63,23,94,-73
84,-54,-208,0,-53,29,106,-77
86,-49,-207,1,-57,41,104,-76
84,-46,-208,0,-56,29,99,-77
88,-52,-216,3,-44,35,102,-78
87,-47,-212,4,-49,31,107,-80
84,-47,-209,-1,-60,29,93,-83
82,-60,-194,-2,-59,34,101,-83
82,-48,-176,1,-59,34,104,-83
86,-46,-141,7,-51,38,107,-76
93,-50,-112,7,-46,49,102,-80
98,-46,-94,4,-53,39,110,-81
93,-43,-107,-2,-54,42,95,-83
84,-51,-127,3,-65,44,88,-85
81,-53,-151,-1,-60,47,91,-86
89,-49,-170,1,-56,51,99,-88
92,-43,-195,8,-47,43,103,-79
99,-47,-219,7,-44,48,99,-84
97,-40,-244,3,-52,28,100,-87
85,-44,-262,0,-59,38,80,-82
80,-54,-268,0,-59,35,83,-91
80,-53,-256,-1,-58,45,92,-88
86,-48,-242,1,-55,37,97,-83
91,-43,-228,8,-47,39,106,-83
95,-48,-220,5,-45,36,113,-81
88,-47,-205,5,-56,34,93,-90
82,-48,-204,-2,-72,34,94,-89
74,-55,-200,0,-65,34,93,-84
77,-55,-191,-6,-64,47,100,-88
85,-49,-190,4,-56,30,114,-79
93,-52,-190,6,-44,52,102,-81
92,-47,-199,1,-53,37,103,-78
93,-45,-206,0,-53,51,99,-84
79,-51,-213,-2,-63,30,88,-86
85,-57,-222,-3,-57,36,94,-77
83,-46,-216,2,-52,40,98,-80
96,-43,-222,5,-53,52,111,-80
94,-53,-228,7,-50,36,96,-79
87,-47,-242,0,-55,44,96,-80
87,-49,-258,1,-59,33,97,-87
83,-53,-263,-1,-59,45,89,-82
84,-52,-269,0,-56,40,106,-86
88,-50,-269,2,-52,43,112,-85
92,-44,-259,3,-44,37,112,-78
89,-45,-255,4,-53,43,111,-79
94,-46,-249,-1,-59,40,103,-83
82,-50,-252,-2,-58,25,98,-81
79,-55,-243,3,-59,38,107,-81
84,-53,-238,-4,-54,37,98,-79
89,-51,-225,5,-54,42,110,-82
89,-48,-228,3,-51,35,94,-79
89,-51,-243,4,-53,53,104,-80
86,-43,-263,-2,-54,30,105,-81
85,-51,-280,1,-57,38,90,-85
81,-53,-292,2,-59,47,91,-80
84,-44,-282,1,-53,34,100,-86
87,-52,-273,1,-60,43,97,-82
86,-49,-251,0,-57,39,93,-81
85,-48,-216,5,-56,50,95,-82
86,-49,-190,-2,-56,38,100,-86
90,-49,-176,0,-60,34,97,-84
87,-56,-178,-1,-59,39,99,-80
90,-48,-180,2,-51,45,111,-82
89,-42,-183,4,-55,41,102,-79
95,-50,-183,0,-51,39,91,-83
84,-50,-183,2,-60,39,96,-79
84,-44,-182,-4,-59,46,91,-84
84,-56,-176,2,-58,40,100,-80
86,-46,-180,0,-56,45,98,-76
88,-51,-185,5,-50,33,101,-78
93,-46,-189,3,-56,44,107,-79
90,-51,-201,1,-48,41,95,-83
84,-47,-210,1,-61,38,92,-84
80,-49,-211,-1,-57,38,96,-82
89,-50,-201,2,-57,45,91,-80
81,-57,-200,2,-51,46,103,-84
88,-47,-201,3,-59,36,106,-78
89,-45,-194,0,-56,44,98,-76
85,-52,-189,3,-59,40,97,-80
87,-50,-185,2,-57,33,104,-82
91,-45,-178,-3,-57,50,98,-76
84,-56,-174,3,-58,39,107,-78
92,-50,-177,4,-50,43,106,-79
92,-45,-187,1,-55,38,100,-78
92,-46,-192,1,-62,46,111,-81
87,-49,-196,6,-58,29,93,-79
88,-48,-207,-1,-65,38,100,-81
82,-47,-211,-1,-63,34,85,-81
83,-52,-212,4,-60,33,101,-81
92,-43,-210,2,-58,32,110,-82
87,-48,-209,6,-54,49,100,-80
94,-49,-210,1,-50,33,113,-78
88,-47,-219,2,-64,36,92,-80
83,-51,-230,3,-60,39,96,-81
84,-47,-234,-1,-53,49,104,-78
89,-46,-217,2,-47,34,106,-76
94,-52,-207,2,-52,44,108,-77
89,-43,-207,4,-54,43,100,-79
86,-56,-199,1,-54,32,93,-79
88,-45,-191,4,-57,36,102,-78
83,-44,-183,2,-53,41,101,-80
87,-47,-172,5,-48,43,98,-79
91,-53,-158,1,-53,37,104,-76
91,-42,-139,2,-52,29,98,-81
85,-49,-124,6,-60,37,98,-83
88,-52,-107,-2,-54,39,96,-76
87,-44,-95,8,-48,40,100,-80
92,-44,-92,3,-51,42,107,-79
93,-42,-107,2,-53,25,107,-79
91,-48,-128,5,-56,40,94,-83
84,-50,-147,0,-65,32,98,-81
82,-49,-159,-1,-63,44,91,-80
79,-50,-164,-2,-60,53,102,-72
82,-49,-154,2,-59,33,100,-74
88,-42,-154,1,-53,47,107,-70
88,-52,-152,-3,-57,41,102,-69
84,-52,-160,1,-58,36,93,-76
83,-43,-157,3,-61,32,100,-71
80,-52,-163,-2,-60,38,97,-79
84,-50,-158,0,-60,43,105,-86
89,-46,-157,1,-56,54,103,-81
88,-45,-142,1,-54,40,107,-77
91,-48,-123,1,-53,37,108,-82
89,-47,-105,3,-55,47,106,-84
86,-46,-95,1,-64,38,97,-79
87,-49,-94,-4,-54,45,105,-69
86,-46,-91,6,-63,36,107,-71
97,-47,-81,2,-49,41,107,-68
95,-41,-85,2,-51,37,111,-74
91,-54,-94,-4,-62,46,88,-75
80,-52,-106,0,-58,32,105,-79
79,-45,-109,-4,-66,33,96,-75
82,-51,-118,-4,-55,27,99,-81
86,-53,-111,3,-52,44,107,-73
92,-42,-103,3,-54,39,111,-79
88,-50,-95,2,-50,38,99,-76
93,-47,-85,-5,-59,41,105,-80
83,-50,-82,-2,-59,24,88,-86
80,-53,-84,-2,-61,36,99,-80
86,-51,-84,-1,-60,42,104,-76
92,-45,-93,2,-53,31,107,-79
92,-47,-128,10,-57,37,104,-80
88,-49,-160,4,-56,33,93,-80
88,-52,-177,1,-58,36,104,-80
86,-49,-195,10,-58,46,104,-78
85,-44,-195,-4,-59,31,100,-75
79,-52,-192,-2,-58,32,102,-67
84,-48,-181,-5,-64,39,108,-76
87,-45,-166,-3,-53,32,104,-74
87,-53,-155,1,-56,36,109,-67
90,-46,-144,-6,-56,48,104,-66
93,-40,-128,1,-55,25,105,-76
88,-50,-130,1,-54,39,102,-67
90,-51,-128,4,-57,38,111,-67
87,-48,-125,2,-65,41,106,-77
84,-48,-131,7,-55,25,104,-74
89,-47,-127,5,-54,33,112,-72
89,-51,-136,2,-57,36,104,-77
90,-44,-136,6,-50,31,108,-80
86,-50,-143,5,-54,34,92,-78
89,-49,-137,0,-60,29,103,-80
82,-46,-138,-9,-56,39,99,-80
89,-46,-134,4,-56,34,95,-82
87,-52,-144,2,-57,33,107,-77
84,-41,-140,11,-52,42,103,-84
88,-49,-134,18,-57,30,95,-81
86,-51,-118,16,-56,35,107,-83
89,-48,-88,9,-53,34,103,-83
86,-48,-60,4,-54,34,106,-82
86,-56,-42,1,-61,34,94,-80
86,-51,-18,0,-55,42,105,-78
88,-45,-11,-14,-67,50,103,-80
87,-52,-6,-14,-66,28,90,-79
84,-54,-14,-13,-60,36,104,-82
86,-51,-28,-11,-60,29,99,-80
88,-45,-12,-7,-56,52,104,-73
86,-45,-5,2,-53,38,104,-74
91,-43,15,5,-51,39,101,-78
90,-41,3,4,-60,39,107,-76
85,-50,-16,-1,-55,39,106,-73
86,-54,-36,1,-55,47,101,-73
90,-44,-56,-1,-55,32,105,-76
88,-46,-65,7,-54,35,107,-67
94,-48,-75,15,-44,40,108,-75
93,-43,-95,12,-53,40,113,-73
91,-51,-109,8,-53,39,94,-74
86,-51,-126,7,-61,25,104,-70
86,-42,-135,9,-59,39,108,-75
90,-47,-130,4,-55,31,107,-76
91,-47,-136,-5,-57,36,103,-72
87,-54,-137,-6,-56,23,105,-76
85,-45,-134,-12,-63,36,102,-81
79,-50,-123,-4,-63,25,104,-75
80,-50,-97,5,-64,24,105,-78
86,-49,-70,16,-59,31,108,-79
88,-53,-48,20,-57,24,113,-77
88,-48,-30,13,-54,24,105,-76
87,-53,-26,3,-64,29,107,-72
88,-45,-14,-9,-61,31,109,-82
84,-51,-18,-12,-58,20,104,-70
90,-51,-13,-15,-53,36,108,-72
92,-44,-18,-8,-57,23,121,-72
87,-50,-32,-13,-60,38,104,-64
86,-51,-41,-7,-60,21,118,-58
83,-48,-47,-5,-57,33,112,-65
84,-46,-52,0,-64,34,115,-70
90,-46,-56,2,-56,27,110,-72
92,-49,-64,5,-55,26,119,-73
91,-50,-76,7,-59,32,118,-76
88,-46,-76,6,-60,35,106,-73
84,-52,-78,-3,-60,27,117,-74
82,-45,-79,5,-64,35,111,-78
88,-42,-75,9,-54,30,117,-71
92,-50,-80,12,-53,34,112,-68
91,-46,-75,17,-55,23,120,-72
86,-48,-73,9,-58,46,106,-74
82,-47,-80,15,-60,23,100,-68
86,-50,-87,4,-56,34,114,-70
86,-45,-91,9,-53,38,114,-73
98,-45,-104,6,-51,44,118,-72
93,-42,-121,-1,-49,33,105,-74
86,-51,-131,-9,-61,37,103,-77
84,-54,-129,-8,-65,30,105,-85
81,-47,-119,-13,-58,27,97,-83
85,-50,-100,-4,-58,33,111,-86
93,-49,-68,16,-55,30,104,-90
90,-51,-54,24,-56,26,111,-76
88,-45,-46,16,-53,26,115,-81
89,-43,-46,7,-59,32,95,-75
83,-54,-49,1,-59,37,104,-72
83,-53,-45,-3,-58,22,108,-69
93,-45,-38,-6,-53,31,107,-68
89,-43,-31,5,-60,28,114,-70
92,-52,-36,8,-54,31,117,-70
90,-43,-44,8,-56,29,121,-68
93,-44,-49,6,-58,30,104,-72
89,-47,-56,2,-55,45,101,-71
85,-56,-64,5,-66,29,107,-69
91,-43,-68,6,-54,37,104,-79
87,-49,-76,3,-61,25,104,-70
82,-48,-82,5,-59,24,105,-75
89,-48,-83,2,-52,32,111,-74
85,-53,-88,2,-56,32,96,-77
86,-52,-92,4,-59,29,103,-71
83,-49,-96,-2,-63,18,101,-77
86,-52,-91,-4,-66,24,103,-79
83,-47,-83,5,-57,35,105,-72
88,-45,-72,10,-62,27,103,-69
92,-50,-61,8,-62,31,101,-74
91,-47,-72,8,-57,26,107,-78
84,-49,-86,1,-60,33,101,-67
82,-50,-93,-4,-64,17,101,-73
87,-44,-99,1,-57,25,109,-74
81,-53,-106,-2,-61,22,104,-74
89,-55,-106,0,-54,19,111,-71
90,-45,-109,2,-56,20,110,-71
90,-45,-115,0,-56,30,115,-69
85,-49,-125,5,-56,17,110,-64
89,-50,-138,4,-56,18,101,-71
86,-49,-160,4,-56,37,114,-90
87,-48,-173,3,-52,28,109,-93
86,-51,-175,7,-57,37,108,-83
92,-45,-163,7,-53,33,114,-83
91,-52,-156,3,-53,27,108,-68
85,-50,-144,8,-63,28,102,-64
85,-50,-138,2,-68,11,90,-70
80,-46,-133,-5,-62,37,105,-69
85,-55,-119,0,-64,27,108,-64
91,-44,-110,4,-61,30,127,-61
90,-52,-102,-3,-62,30,115,-68
91,-49,-100,8,-63,39,111,-86
90,-47,-92,7,-62,25,99,-99
81,-51,-91,0,-67,35,105,-96
82,-48,-82,0,-60,27,96,-80
88,-52,-88,6,-56,36,94,-54
91,-43,-94,6,-56,25,104,-48
89,-50,-117,7,-53,34,102,-47
87,-47,-131,2,-54,27,89,-59
88,-51,-149,7,-55,17,101,-67
82,-45,-162,-1,-59,19,98,-75
81,-52,-166,1,-57,23,95,-83
83,-53,-155,4,-52,27,104,-80
90,-47,-151,2,-47,23,113,-92
87,-46,-152,7,-54,35,107,-92
87,-51,-154,-1,-61,25,106,-97
85,-48,-156,6,-62,12,106,-96
80,-54,-159,4,-56,42,105,-87
87,-47,-158,3,-55,37,105,-80
86,-49,-144,5,-60,28,105,-61
89,-51,-120,4,-61,44,111,-48
85,-50,-111,0,-60,46,91,-46
86,-51,-105,5,-63,15,104,-54
91,-42,-106,3,-57,25,104,-71
91,-48,-111,6,-60,24,91,-76
88,-51,-120,5,-57,32,101,-76
93,-45,-129,2,-55,31,99,-83
88,-46,-146,4,-63,35,104,-88
83,-55,-160,2,-61,38,109,-80
90,-48,-163,0,-61,30,123,-71
88,-48,-172,7,-59,27,119,-74
88,-52,-169,3,-54,50,122,-80
90,-50,-153,8,-60,39,108,-82
89,-42,-134,0,-56,40,100,-89
87,-52,-121,-1,-65,33,97,-91
83,-49,-114,4,-60,28,91,-83
89,-46,-115,2,-57,6,97,-71
89,-49,-124,3,-59,18,96,-68
90,-47,-142,7,-60,5,93,-67
88,-51,-177,5,-65,7,94,-52
76,-45,-195,2,-65,11,93,-47
86,-48,-203,6,-62,21,99,-52
87,-50,-195,4,-53,31,105,-67
93,-45,-193,4,-56,32,110,-105
94,-48,-186,7,-57,52,108,-130
88,-47,-192,6,-59,40,100,-128
89,-52,-194,4,-64,40,109,-101
82,-50,-193,-1,-61,40,104,-74
85,-51,-193,4,-59,26,101,-61
87,-54,-191,4,-60,30,110,-48
85,-48,-188,2,-55,26,107,-46
89,-46,-190,4,-55,36,99,-83
92,-54,-188,0,-61,29,104,-103
87,-49,-191,4,-57,32,109,-92
86,-45,-193,1,-66,16,85,-90
85,-52,-185,3,-58,48,96,-76
86,-52,-187,5,-56,24,92,-52
87,-45,-171,5,-55,43,104,-51
93,-46,-170,6,-46,46,109,-59
98,-46,-169,7,-53,32,103,-67
89,-41,-172,6,-62,28,98,-73
84,-47,-188,4,-62,17,90,-82
83,-57,-194,2,-66,12,92,-84
80,-46,-194,3,-61,7,89,-79
86,-51,-184,6,-53,23,96,-78
92,-46,-182,8,-56,31,104,-70
91,-47,-179,4,-54,30,103,-64
91,-53,-178,11,-59,30,95,-69
83,-49,-172,-4,-67,33,110,-67
81,-52,-166,7,-63,27,97,-79
87,-51,-146,6,-66,32,114,-82
90,-49,-137,2,-62,35,122,-84
89,-53,-136,6,-62,46,114,-76
91,-50,-133,3,-65,27,112,-76
87,-45,-129,9,-67,42,113,-87
89,-54,-138,1,-60,41,100,-80
83,-48,-143,4,-58,46,106,-70
92,-46,-153,8,-52,40,113,-69
95,-46,-164,4,-52,26,105,-93
89,-49,-178,1,-56,30,102,-96
84,-46,-202,-2,-70,21,96,-81
80,-50,-216,-3,-63,24,92,-66
83,-53,-222,5,-51,28,110,-51
93,-46,-233,11,-53,21,107,-42
98,-44,-239,8,-50,30,101,-47
93,-47,-249,8,-62,24,106,-115
90,-49,-260,2,-59,29,97,-146
86,-46,-270,3,-64,24,98,-144
84,-47,-275,6,-56,32,97,-85
90,-46,-258,4,-54,29,113,-24
95,-45,-234,9,-48,38,118,5
93,-50,-224,5,-55,40,102,-2
83,-54,-209,-3,-62,32,99,-41
80,-48,-200,-2,-59,43,102,-69
85,-48,-191,-2,-53,34,94,-77
90,-50,-181,3,-61,48,85,-105
87,-51,-175,2,-57,49,102,-141
84,-45,-175,6,-62,34,92,-113
81,-53,-173,3,-67,31,99,-94
78,-51,-176,5,-59,28,111,-75
83,-46,-169,6,-55,8,90,-55
89,-48,-163,9,-55,13,78,-52
88,-51,-164,6,-58,24,70,-62
89,-53,-175,3,-57,22,60,-76
86,-47,-190,3,-54,36,78,-83
85,-46,-205,2,-59,62,87,-79
97,-45,-203,5,-52,50,124,-78
91,-49,-196,2,-50,62,143,-66
93,-45,-199,3,-60,58,152,-97
90,-51,-203,3,-55,46,145,-133
86,-52,-200,1,-56,35,128,-107
88,-43,-196,2,-53,31,110,-62
94,-49,-192,6,-56,18,112,-54
84,-49,-176,10,-58,30,103,-66
89,-44,-174,7,-57,29,104,-81
